EMGValue   Timestamp   TrueFlexState
97   17359868   0
496   17380668   0
496   17401468   0
494   17422268   0
497   17443068   0
496   17463868   0
496   17484668   0
496   17505468   0
496   17526268   0
497   17547068   0
496   17567868   0
496   17588668   0
497   17609468   0
498   17630268   0
497   17651068   0
498   17671868   0
496   17692668   0
497   17713468   0
496   17734268   0
496   17755068   0
496   17775868   0
495   17796668   0
497   17817468   0
494   17838268   0
497   17859068   0
495   17879868   0
496   17900668   0
496   17921468   0
496   17942268   0
496   17963068   0
496   17983868   0
496   18004668   0
495   18025468   0
496   18046268   0
496   18067068   0
496   18087868   0
496   18108668   0
497   18129468   0
497   18150268   0
496   18171068   0
496   18191868   0
495   18212668   0
497   18233468   0
495   18254268   0
496   18275068   0
496   18295868   0
496   18316668   0
495   18337468   0
495   18358268   0
497   18379068   0
496   18399868   0
496   18420668   0
497   18441468   0
496   18462268   0
496   18483068   0
495   18503868   0
497   18524668   0
496   18545468   0
497   18566268   0
496   18587068   0
496   18607868   0
496   18628668   0
496   18649468   0
495   18670268   0
494   18691068   0
496   18711868   0
497   18732668   0
495   18753468   0
496   18774268   0
495   18795068   0
496   18815868   0
496   18836668   0
496   18857468   0
497   18878268   0
495   18899068   0
496   18919868   0
496   18940668   0
496   18961468   0
496   18982268   0
496   19003068   0
496   19023868   0
497   19044668   0
496   19065468   0
496   19086268   0
497   19107068   0
496   19127868   0
497   19148668   0
496   19169468   0
496   19190268   0
496   19211068   0
497   19231868   0
496   19252668   0
496   19273468   0
496   19294268   0
497   19315068   0
496   19335868   0
496   19356668   0
496   19377468   0
496   19398268   0
497   19419068   0
496   19439868   0
497   19460668   0
496   19481468   0
497   19502268   0
494   19523068   0
496   19543868   0
491   19564668   0
495   19585468   0
496   19606268   0
496   19627068   0
496   19647868   0
496   19668668   0
495   19689468   0
495   19710268   0
497   19731068   0
496   19751868   0
496   19772668   0
497   19793468   0
494   19814268   0
496   19835068   0
497   19855868   0
497   19876668   0
496   19897468   0
495   19918268   0
496   19939068   0
495   19959868   0
496   19980668   0
496   20001468   0
495   20022268   0
496   20043068   0
496   20063868   0
496   20084668   0
495   20105468   0
494   20126268   0
495   20147068   0
494   20167868   0
496   20188668   0
495   20209468   0
494   20230268   0
495   20251068   0
494   20271868   0
495   20292668   0
494   20313468   0
494   20334268   0
496   20355068   0
495   20375868   0
494   20396668   0
493   20417468   0
494   20438268   0
494   20459068   0
493   20479868   0
494   20500668   0
491   20521468   0
494   20542268   0
489   20563068   0
493   20583868   0
494   20604668   0
492   20625468   0
492   20646268   0
492   20667068   0
492   20687868   0
492   20708668   0
492   20729468   0
492   20750268   0
492   20771068   0
492   20791868   0
492   20812668   0
492   20833468   0
492   20854268   0
492   20875068   0
493   20895868   0
493   20916668   0
494   20937468   0
492   20958268   0
494   20979068   0
492   20999868   0
492   21020668   0
493   21041468   0
492   21062268   0
496   21083068   0
494   21103868   0
496   21124668   0
496   21145468   0
495   21166268   0
494   21187068   0
495   21207868   0
496   21228668   0
499   21249468   0
497   21270268   0
497   21291068   0
497   21311868   0
498   21332668   0
498   21353468   0
497   21374268   0
497   21395068   0
498   21415868   0
498   21436668   0
498   21457468   0
499   21478268   0
499   21499068   0
497   21519868   0
498   21540668   0
499   21561468   0
498   21582268   0
499   21603068   0
499   21623868   0
499   21644668   0
498   21665468   0
499   21686268   0
499   21707068   0
498   21727868   0
500   21748668   0
498   21769468   0
498   21790268   0
498   21811068   0
499   21831868   0
498   21852668   0
499   21873468   0
498   21894268   0
498   21915068   0
497   21935868   0
498   21956668   0
497   21977468   0
499   21998268   0
498   22019068   0
497   22039868   0
498   22060668   0
499   22081468   0
497   22102268   0
497   22123068   0
497   22143868   0
496   22164668   0
497   22185468   0
496   22206268   0
497   22227068   0
498   22247868   0
497   22268668   0
496   22289468   0
497   22310268   0
499   22331068   0
497   22351868   0
496   22372668   0
498   22393468   0
496   22414268   0
496   22435068   0
496   22455868   0
497   22476668   0
496   22497468   0
497   22518268   0
497   22539068   0
497   22559868   0
497   22580668   0
497   22601468   0
497   22622268   0
495   22643068   0
496   22663868   0
497   22684668   0
498   22705468   0
497   22726268   0
499   22747068   0
499   22767868   0
499   22788668   0
499   22809468   0
498   22830268   0
496   22851068   0
497   22871868   0
498   22892668   0
496   22913468   0
497   22934268   0
497   22955068   0
496   22975868   0
499   22996668   0
496   23017468   0
496   23038268   0
497   23059068   0
497   23079868   0
497   23100668   0
497   23121468   0
496   23142268   0
496   23163068   0
496   23183868   0
496   23204668   0
498   23225468   0
496   23246268   0
496   23267068   0
496   23287868   0
496   23308668   0
495   23329468   0
498   23350268   0
498   23371068   0
497   23391868   0
498   23412668   0
496   23433468   0
497   23454268   0
497   23475068   0
496   23495868   0
497   23516668   0
497   23537468   0
497   23558268   0
497   23579068   0
497   23599868   0
496   23620668   0
497   23641468   0
497   23662268   0
497   23683068   0
496   23703868   0
496   23724668   0
499   23745468   0
497   23766268   0
497   23787068   0
497   23807868   0
497   23828668   0
497   23849468   0
496   23870268   0
496   23891068   0
497   23911868   0
498   23932668   0
497   23953468   0
496   23974268   0
497   23995068   0
497   24015868   0
496   24036668   0
497   24057468   0
496   24078268   0
498   24099068   0
496   24119868   0
497   24140668   0
498   24161468   0
496   24182268   0
496   24203068   0
497   24223868   0
496   24244668   0
495   24265468   0
496   24286268   0
496   24307068   0
497   24327868   0
497   24348668   0
497   24369468   0
496   24390268   0
497   24411068   0
496   24431868   0
498   24452668   0
496   24473468   0
499   24494268   0
496   24515068   0
495   24535868   0
496   24556668   0
496   24577468   0
496   24598268   0
495   24619068   0
497   24639868   0
497   24660668   0
496   24681468   0
497   24702268   0
496   24723068   0
497   24743868   0
496   24764668   0
495   24785468   0
496   24806268   0
496   24827068   0
496   24847868   0
496   24868668   0
495   24889468   0
496   24910268   0
495   24931068   0
496   24951868   0
496   24972668   0
495   24993468   0
496   25014268   0
496   25035068   0
496   25055868   0
497   25076668   0
496   25097468   0
495   25118268   0
497   25139068   0
496   25159868   0
496   25180668   0
496   25201468   0
496   25222268   0
496   25243068   0
495   25263868   0
497   25284668   0
496   25305468   0
496   25326268   0
496   25347068   0
497   25367868   0
496   25388668   0
496   25409468   0
496   25430268   0
495   25451068   0
496   25471868   0
496   25492668   0
497   25513468   0
496   25534268   0
495   25555068   0
496   25575868   0
496   25596668   0
497   25617468   0
496   25638268   0
496   25659068   0
497   25679868   0
497   25700668   0
496   25721468   0
496   25742268   0
495   25763068   0
494   25783868   0
496   25804668   0
495   25825468   0
495   25846268   0
496   25867068   0
496   25887868   0
495   25908668   0
496   25929468   0
496   25950268   0
497   25971068   0
496   25991868   0
496   26012668   0
496   26033468   0
495   26054268   0
496   26075068   0
496   26095868   0
496   26116668   0
497   26137468   0
495   26158234769468   0
498   34790268   0
498   34811068   0
496   34831868   0
496   34852668   0
497   34873468   0
497   34894268   0
497   34915068   0
496   34935868   0
496   34956668   0
496   34977468   0
497   34998268   0
496   35019068   0
496   35039868   0
496   35060668   0
496   35081468   0
496   35102268   0
496   35123068   0
497   35143868   0
496   35164668   0
497   35185468   0
496   35206268   0
497   35227068   0
496   35247868   0
496   35268668   0
497   35289468   0
496   35310268   0
497   35331068   0
496   35351868   0
497   35372668   0
497   35393468   0
497   35414268   0
496   35435068   0
496   35455868   0
498   35476668   0
496   35497468   0
496   35518268   0
496   35539068   0
496   35559868   0
496   35580668   0
496   35601468   0
497   35622268   0
496   35643068   0
497   35663868   0
496   35684668   0
497   35705468   0
497   35726268   0
497   35747068   0
496   35767868   0
497   35788668   0
495   35809468   0
498   35830268   0
497   35851068   0
497   35871868   0
497   35892668   0
497   35913468   0
497   35934268   0
497   35955068   0
496   35975868   0
495   35996668   0
497   36017468   0
496   36038268   0
496   36059068   0
496   36079868   0
496   36100668   0
497   36121468   0
497   36142268   0
495   36163068   0
497   36183868   0
497   36204668   0
497   36225468   0
497   36246268   0
497   36267068   0
496   36287868   0
497   36308668   0
497   36329468   0
497   36350268   0
496   36371068   0
497   36391868   0
497   36412668   0
498   36433468   0
503   36454268   0
497   36475068   0
497   36495868   0
496   36516668   0
496   36537468   0
497   36558268   0
496   36579068   0
497   36599868   0
495   36620668   0
497   36641468   0
496   36662268   0
497   36683068   0
497   36703868   0
497   36724668   0
496   36745468   0
495   36766268   0
496   36787068   0
497   36807868   0
496   36828668   0
497   36849468   0
496   36870268   0
495   36891068   0
496   36911868   0
496   36932668   0
496   36953468   0
496   36974268   0
496   36995068   0
497   37015868   0
496   37036668   0
496   37057468   0
495   37078268   0
496   37099068   0
495   37119868   0
495   37140668   0
496   37161468   0
496   37182268   0
496   37203068   0
496   37223868   0
496   37244668   0
496   37265468   0
496   37286268   0
496   37307068   0
495   37327868   0
494   37348668   0
493   37369468   0
496   37390268   0
499   37411068   0
495   37431868   0
496   37452668   0
497   37473468   0
496   37494268   0
496   37515068   0
496   37535868   0
497   37556668   0
497   37577468   0
496   37598268   0
496   37619068   0
496   37639868   0
497   37660668   0
496   37681468   0
496   37702268   0
496   37723068   0
496   37743868   0
496   37764668   0
497   37785468   0
496   37806268   0
496   37827068   0
496   37847868   0
496   37868668   0
497   37889468   0
496   37910268   0
497   37931068   0
497   37951868   0
496   37972668   0
495   37993468   0
497   38014268   0
496   38035068   0
496   38055868   0
496   38076668   0
497   38097468   0
496   38118268   0
496   38139068   0
496   38159868   0
497   38180668   0
495   38201468   0
497   38222268   0
496   38243068   0
496   38263868   0
496   38284668   0
496   38305468   0
497   38326268   0
496   38347068   0
496   38367868   0
497   38388668   0
497   38409468   0
496   38430268   0
496   38451068   0
496   38471868   0
497   38492668   0
497   38513468   0
497   38534268   0
496   38555068   0
497   38575868   0
496   38596668   0
496   38617468   0
496   38638268   0
497   38659068   0
498   38679868   0
498   38700668   0
497   38721468   0
496   38742268   0
497   38763068   0
497   38783868   0
498   38804668   0
497   38825468   0
496   38846268   0
496   38867068   0
497   38887868   0
497   38908668   0
497   38929468   0
496   38950268   0
497   38971068   0
496   38991868   0
497   39012668   0
498   39033468   0
499   39054268   0
497   39075068   0
496   39095868   0
496   39116668   0
498   39137468   0
498   39158268   0
497   39179068   0
497   39199868   0
496   39220668   0
497   39241468   0
496   39262268   0
496   39283068   0
496   39303868   0
497   39324668   0
497   39345468   0
496   39366268   0
497   39387068   0
497   39407868   0
497   39428668   0
496   39449468   0
497   39470268   0
498   39491068   0
495   39511868   0
497   39532668   0
496   39553468   0
498   39574268   0
496   39595068   0
496   39615868   0
497   39636668   0
499   39657468   0
498   39678268   0
494   39699068   0
497   39719868   0
497   39740668   0
497   39761468   0
497   39782268   0
497   39803068   0
496   39823868   0
496   39844668   0
496   39865468   0
496   39886268   0
499   39907068   0
496   39927868   0
496   39948668   0
497   39969468   0
497   39990268   0
496   40011068   0
497   40031868   0
496   40052668   0
497   40073468   0
496   40094268   0
496   40115068   0
496   40135868   0
496   40156668   0
499   40177468   0
499   40198268   0
494   40219068   0
502   40239868   0
498   40260668   0
498   40281468   0
494   40302268   0
492   40323068   0
492   40343868   0
492   40364668   0
494   40385468   0
494   40406268   0
499   40427068   0
496   40447868   0
494   40468668   0
495   40489468   0
494   40510268   0
496   40531068   0
492   40551868   0
494   40572668   0
492   40593468   0
498   40614268   0
494   40635068   0
483   40655868   0
497   40676668   1
500   40697468   1
500   40718268   1
512   40739068   1
500   40759868   1
500   40780668   1
491   40801468   1
500   40822268   1
487   40843068   1
489   40863868   1
500   40884668   1
483   40905468   1
504   40926268   1
490   40947068   1
492   40967868   1
484   40988668   1
484   41009468   1
486   41030268   1
493   41051068   1
496   41071868   1
493   41092668   1
499   41113468   1
482   41134268   1
499   41155068   1
481   41175868   1
496   41196668   1
484   41217468   1
499   41238268   1
498   41259068   1
489   41279868   1
502   41300668   1
500   41321468   1
493   41342268   1
483   41363068   1
493   41383868   1
493   41404668   1
496   41425468   1
489   41446268   1
496   41467068   1
492   41487868   1
495   41508668   1
492   41529468   1
499   41550268   1
503   41571068   1
499   41591868   1
497   41612668   1
487   41633468   1
504   41654268   1
500   41675068   1
494   41695868   1
490   41716668   1
491   41737468   1
492   41758268   1
494   41779068   1
492   41799868   1
505   41820668   1
500   41841468   1
494   41862268   1
494   41883068   1
487   41903868   1
483   41924668   1
509   41945468   1
502   41966268   1
489   41987068   0
490   42007868   0
492   42028668   0
492   42049468   0
497   42070268   0
491   42091068   0
490   42111868   0
492   42132668   0
497   42153468   0
492   42174268   0
494   42195068   0
493   42215868   0
494   42236668   0
496   42257468   0
495   42278268   0
487   42299068   0
495   42319868   0
496   42340668   0
492   42361468   0
494   42382268   0
496   42403068   0
496   42423868   0
504   42444668   0
500   42465468   0
496   42486268   0
497   42507068   0
496   42527868   0
496   42548668   0
495   42569468   0
492   42590268   0
502   42611068   0
492   42631868   0
502   42652668   0
502   42673468   0
500   42694268   0
500   42715068   0
490   42735868   0
496   42756668   0
487   42777468   0
499   42798268   0
502   42819068   0
494   42839868   0
496   42860668   0
499   42881468   0
497   42902268   0
493   42923068   0
493   42943868   0
494   42964668   0
497   42985468   0
509   43006268   0
489   43027068   0
486   43047868   0
495   43068668   1
489   43089468   1
496   43110268   1
492   43131068   1
496   43151868   1
487   43172668   1
494   43193468   1
480   43214268   1
496   43235068   1
487   43255868   1
500   43276668   1
486   43297468   1
496   43318268   1
484   43339068   1
486   43359868   1
504   43380668   1
492   43401468   1
505   43422268   1
492   43443068   1
490   43463868   1
494   43484668   1
502   43505468   1
489   43526268   1
505   43547068   1
491   43567868   1
500   43588668   1
496   43609468   1
479   43630268   1
484   43651068   1
489   43671868   1
489   43692668   1
497   43713468   1
492   43734268   1
481   43755068   1
487   43775868   1
496   43796668   1
487   43817468   1
493   43838268   1
492   43859068   1
492   43879868   1
490   43900668   1
492   43921468   1
504   43942268   1
485   43963068   1
487   43983868   1
502   44004668   1
498   44025468   1
495   44046268   1
487   44067068   1
499   44087868   1
497   44108668   1
497   44129468   1
491   44150268   1
490   44171068   1
492   44191868   1
492   44212668   1
500   44233468   1
492   44254268   1
491   44275068   1
489   44295868   1
502   44316668   1
495   44337468   1
487   44358268   1
487   44379068   1
499   44399868   1
503   44420668   1
500   44441468   1
500   44462268   1
491   44483068   1
498   44503868   1
483   44524668   1
480   44545468   1
495   44566268   1
492   44587068   1
487   44607868   1
489   44628668   1
496   44649468   1
500   44670268   1
503   44691068   1
498   44711868   1
499   44732668   1
495   44753468   1
505   44774268   1
499   44795068   1
508   44815868   1
499   44836668   1
500   44857468   1
491   44878268   1
492   44899068   1
499   44919868   1
505   44940668   1
489   44961468   1
497   44982268   1
487   45003068   1
497   45023868   1
500   45044668   1
513   45065468   1
498   45086268   1
499   45107068   1
475   45127868   1
490   45148668   1
492   45169468   1
484   45190268   1
503   45211068   1
504   45231868   1
499   45252668   1
497   45273468   1
499   45294268   1
496   45315068   1
496   45335868   1
495   45356668   1
497   45377468   1
502   45398268   1
499   45419068   1
499   45439868   1
496   45460668   1
492   45481468   1
496   45502268   1
492   45523068   1
495   45543868   1
494   45564668   1
483   45585468   1
492   45606268   1
489   45627068   1
496   45647868   1
494   45668668   1
484   45689468   1
494   45710268   1
505   45731068   1
501   45751868   1
508   45772668   1
487   45793468   1
492   45814268   1
497   45835068   1
496   45855868   1
499   45876668   1
492   45897468   1
496   45918268   1
491   45939068   1
497   45959868   1
499   45980668   1
499   46001468   1
492   46022268   1
503   46043068   1
500   46063868   1
497   46084668   1
490   46105468   1
499   46126268   1
499   46147068   1
483   46167868   1
496   46188668   1
494   46209468   1
492   46230268   1
502   46251068   1
494   46271868   1
481   46292668   1
488   46313468   1
494   46334268   1
499   46355068   1
497   46375868   1
510   46396668   1
499   46417468   1
487   46438268   1
489   46459068   1
487   46479868   1
488   46500668   0
473   46521468   0
490   46542268   0
476   46563068   0
487   46583868   0
472   46604668   0
483   46625468   0
492   46646268   0
487   46667068   0
496   46687868   0
490   46708668   0
492   46729468   0
490   46750268   0
487   46771068   0
487   46791868   0
497   46812668   0
496   46833468   0
493   46854268   0
499   46875068   0
502   46895868   0
497   46916668   0
501   46937468   0
494   46958268   0
491   46979068   0
497   46999868   0
497   47020668   0
499   47041468   0
493   47062268   0
495   47083068   0
504   47103868   0
499   47124668   0
499   47145468   0
499   47166268   0
492   47187068   0
498   47207868   0
496   47228668   0
500   47249468   0
496   47270268   0
496   47291068   0
497   47311868   0
496   47332668   0
495   47353468   0
494   47374268   0
499   47395068   0
500   47415868   0
498   47436668   0
503   47457468   0
496   47478268   0
498   47499068   0
497   47519868   0
494   47540668   0
493   47561468   0
499   47582268   0
499   47603068   0
499   47623868   0
492   47644668   0
499   47665468   0
497   47686268   0
501   47707068   0
496   47727868   0
496   47748668   0
499   47769468   0
495   47790268   0
501   47811068   0
498   47831868   0
496   47852668   0
491   47873468   1
511   47894268   1
499   47915068   1
495   47935868   1
497   47956668   1
497   47977468   1
497   47998268   1
500   48019068   1
499   48039868   1
502   48060668   1
493   48081468   1
497   48102268   1
499   48123068   1
504   48143868   1
498   48164668   1
498   48185468   1
493   48206268   1
492   48227068   1
508   48247868   1
494   48268668   1
502   48289468   1
496   48310268   1
505   48331068   1
500   48351868   1
494   48372668   1
497   48393468   1
489   48414268   1
496   48435068   1
491   48455868   1
489   48476668   1
491   48497468   1
504   48518268   1
494   48539068   1
496   48559868   1
503   48580668   1
484   48601468   1
489   48622268   1
497   48643068   1
495   48663868   1
489   48684668   1
498   48705468   1
495   48726268   1
494   48747068   1
497   48767868   1
498   48788668   1
494   48809468   1
500   48830268   1
487   48851068   1
492   48871868   1
496   48892668   1
486   48913468   1
495   48934268   1
495   48955068   1
498   48975868   1
496   48996668   1
496   49017468   1
499   49038268   1
493   49059068   1
499   49079868   1
494   49100668   1
501   49121468   1
496   49142268   1
504   49163068   1
489   49183868   1
489   49204668   1
500   49225468   1
497   49246268   1
499   49267068   1
488   49287868   1
499   49308668   1
499   49329468   1
496   49350268   1
496   49371068   1
500   49391868   1
505   49412668   1
499   49433468   1
482   49454268   1
493   49475068   1
496   49495868   1
493   49516668   1
497   49537468   1
505   49558268   1
492   49579068   1
504   49599868   1
497   49620668   1
493   49641468   1
499   49662268   1
488   49683068   1
495   49703868   1
496   49724668   1
489   49745468   1
502   49766268   1
499   49787068   1
499   49807868   1
498   49828668   1
492   49849468   1
494   49870268   1
495   49891068   1
497   49911868   1
496   49932668   1
496   49953468   1
493   49974268   1
504   49995068   1
504   50015868   1
488   50036668   1
493   50057468   1
498   50078268   1
488   50099068   1
495   50119868   1
492   50140668   1
487   50161468   1
491   50182268   1
492   50203068   1
501   50223868   1
487   50244668   1
503   50265468   1
504   50286268   1
480   50307068   0
489   50327868   0
478   50348668   0
497   50369468   0
486   50390268   0
481   50411068   0
508   50431868   0
489   50452668   0
490   50473468   0
491   50494268   0
492   50515068   0
485   50535868   0
492   50556668   0
492   50577468   0
493   50598268   0
504   50619068   0
489   50639868   0
499   50660668   0
494   50681468   0
495   50702268   0
497   50723068   0
499   50743868   0
499   50764668   0
495   50785468   0
497   50806268   0
495   50827068   0
499   50847868   0
495   50868668   0
494   50889468   0
499   50910268   0
504   50931068   0
497   50951868   0
496   50972668   0
497   50993468   0
492   51014268   0
497   51035068   0
500   51055868   0
502   51076668   0
501   51097468   0
494   51118268   0
496   51139068   0
496   51159868   0
497   51180668   0
495   51201468   0
503   51222268   0
501   51243068   0
499   51263868   0
496   51284668   0
497   51305468   0
496   51326268   0
502   51347068   0
495   51367868   0
499   51388668   0
495   51409468   0
497   51430268   0
495   51451068   0
499   51471868   0
497   51492668   0
504   51513468   0
497   51534268   0
499   51555068   0
496   51575868   0
497   51596668   0
497   51617468   0
497   51638268   0
498   51659068   0
496   51679868   0
496   51700668   0
499   51721468   0
502   51742268   0
499   51763068   0
498   51783868   0
498   51804668   0
497   51825468   0
497   51846268   0
497   51867068   0
498   51887868   0
496   51908668   0
498   51929468   0
500   51950268   0
499   51971068   0
499   51991868   0
497   52012668   0
499   52033468   0
499   52054268   0
500   52075068   0
500   52095868   0
497   52116668   0
497   52137468   0
497   52158268   0
497   52179068   0
497   52199868   0
497   52220668   0
496   52241468   0
498   52262268   0
498   52283068   0
497   52303868   0
494   52324668   0
494   52345468   0
497   52366268   0
497   52387068   0
497   52407868   0
497   52428668   0
495   52449468   0
499   52470268   0
497   52491068   0
496   52511868   0
497   52532668   0
497   52553468   0
494   52574268   0
497   52595068   0
497   52615868   0
497   52636668   0
499   52657468   0
496   52678268   0
499   52699068   0
497   52719868   0
497   52740668   0
499   52761468   0
496   52782268   0
496   52803068   0
497   52823868   0
496   52844668   0
497   52865468   0
497   52886268   0
497   52907068   0
498   52927868   0
496   52948668   0
497   52969468   0
498   52990268   0
500   53011068   0
496   53031868   0
499   53052668   0
496   53073468   0
501   53094268   0
498   53115068   0
496   53135868   0
496   53156668   0
496   53177468   0
496   53198268   0
496   53219068   0
493   53239868   0
496   53260668   0
497   53281468   0
497   53302268   0
498   53323068   0
494   53343868   0
496   53364668   0
498   53385468   0
498   53406268   0
497   53427068   0
497   53447868   0
497   53468668   0
497   53489468   0
498   53510268   0
497   53531068   0
496   53551868   0
495   53572668   0
499   53593468   0
499   53614268   0
496   53635068   0
496   53655868   0
496   53676668   0
496   53697468   0
496   53718268   0
497   53739068   0
498   53759868   0
495   53780668   0
495   53801468   0
498   53822268   0
499   53843068   0
496   53863868   0
497   53884668   0
495   53905468   0
496   53926268   0
497   53947068   0
498   53967868   0
497   53988668   0
494   54009468   0
495   54030268   0
496   54051068   0
497   54071868   0
497   54092668   0
496   54113468   0
495   54134268   0
503   54155068   0
496   54175868   0
496   54196668   0
497   54217468   0
497   54238268   0
499   54259068   0
497   54279868   0
496   54300668   0
496   54321468   0
495   54342268   0
497   54363068   0
497   54383868   0
497   54404668   0
496   54425468   0
496   54446268   0
499   54467068   0
497   54487868   0
495   54508668   0
496   54529468   0
498   54550268   0
497   54571068   0
497   54591868   0
496   54612668   0
496   54633468   0
497   54654268   0
497   54675068   0
498   54695868   0
498   54716668   0
496   54737468   0
495   54758268   0
496   54779068   0
495   54799868   0
496   54820668   0
496   54841468   0
495   54862268   0
496   54883068   0
495   54903868   0
496   54924668   0
497   54945468   0
496   54966268   0
498   54987068   0
497   55007868   0
495   55028668   0
496   55049468   0
496   55070268   0
496   55091068   0
497   55111868   0
501   55132668   0
496   55153468   0
495   55174268   0
496   55195068   0
496   55215868   0
495   55236668   0
496   55257468   0
493   55278268   0
496   55299068   0
496   55319868   0
494   55340668   0
496   55361468   0
498   55382268   0
495   55403068   0
496   55423868   0
496   55444668   0
495   55465468   0
493   55486268   0
496   55507068   0
497   55527868   0
495   55548668   0
493   55569468   0
496   55590268   0
499   55611068   0
496   55631868   0
497   55652668   0
492   55673468   0
496   55694268   0
495   55715068   0
496   55735868   0
496   55756668   0
496   55777468   0
495   55798268   0
496   55819068   0
495   55839868   0
493   55860668   0
497   55881468   0
495   55902268   0
497   55923068   0
496   55943868   0
495   55964668   0
497   55985468   0
494   56006268   0
496   56027068   0
496   56047868   0
496   56068668   0
496   56089468   0
496   56110268   0
496   56131068   0
496   56151868   0
497   56172668   0
496   56193468   0
496   56214268   0
496   56235068   0
497   56255868   0
496   56276668   0
497   56297468   0
497   56318268   0
494   56339068   0
497   56359868   0
497   56380668   0
496   56401468   0
502   56422268   0
496   56443068   0
498   56463868   0
496   56484668   0
495   56505468   0
497   56526268   0
496   56547068   0
496   56567868   0
496   56588668   0
495   56609468   0
495   56630268   0
498   56651068   0
495   56671868   0
493   56692668   0
494   56713468   0
497   56734268   0
497   56755068   0
493   56775868   0
504   56796668   0
494   56817468   0
496   56838268   0
496   56859068   0
502   56879868   0
504   56900668   0
496   56921468   0
499   56942268   0
509   56963068   0
486   56983868   0
499   57004668   0
478   57025468   0
491   57046268   0
493   57067068   0
489   57087868   0
496   57108668   0
491   57129468   0
492   57150268   0
490   57171068   0
496   57191868   0
492   57212668   0
494   57233468   0
496   57254268   0
496   57275068   0
496   57295868   0
496   57316668   0
496   57337468   0
498   57358268   0
498   57379068   0
499   57399868   0
496   57420668   0
495   57441468   0
497   57462268   0
499   57483068   0
504   57503868   0
499   57524668   0
498   57545468   0
499   57566268   0
496   57587068   0
498   57607868   0
498   57628668   0
496   57649468   0
497   57670268   0
499   57691068   0
499   57711868   0
500   57732668   1
503   57753468   1
504   57774268   1
502   57795068   1
499   57815868   1
499   57836668   1
499   57857468   1
499   57878268   1
499   57899068   1
498   57919868   1
500   57940668   1
504   57961468   1
505   57982268   1
502   58003068   1
494   58023868   1
491   58044668   1
473   58065468   1
492   58086268   1
487   58107068   1
485   58127868   1
496   58148668   1
505   58169468   1
494   58190268   1
498   58211068   1
488   58231868   1
499   58252668   1
492   58273468   1
496   58294268   1
513   58315068   1
492   58335868   1
484   58356668   1
490   58377468   1
497   58398268   1
476   58419068   1
496   58439868   1
494   58460668   1
483   58481468   1
499   58502268   1
487   58523068   1
491   58543868   1
495   58564668   1
491   58585468   1
490   58606268   1
494   58627068   1
496   58647868   1
494   58668668   1
497   58689468   1
496   58710268   1
497   58731068   1
499   58751868   1
497   58772668   1
497   58793468   1
495   58814268   1
494   58835068   1
495   58855868   1
494   58876668   1
493   58897468   1
491   58918268   1
493   58939068   1
487   58959868   1
494   58980668   1
483   59001468   1
494   59022268   1
494   59043068   1
483   59063868   1
475   59084668   1
487   59105468   1
489   59126268   1
486   59147068   1
482   59167868   1
481   59188668   1
487   59209468   1
487   59230268   1
482   59251068   1
488   59271868   1
487   59292668   1
487   59313468   1
485   59334268   1
487   59355068   1
485   59375868   1
492   59396668   1
489   59417468   1
492   59438268   1
493   59459068   1
493   59479868   1
489   59500668   1
492   59521468   1
493   59542268   1
490   59563068   1
493   59583868   1
491   59604668   1
496   59625468   1
498   59646268   1
503   59667068   1
497   59687868   1
497   59708668   1
495   59729468   1
489   59750268   1
506   59771068   1
497   59791868   1
497   59812668   1
499   59833468   1
486   59854268   1
495   59875068   1
505   59895868   1
492   59916668   1
492   59937468   1
487   59958268   1
487   59979068   1
506   59999868   1
502   60020668   1
500   60041468   1
500   60062268   1
501   60083068   1
511   60103868   1
501   60124668   1
510   60145468   1
504   60166268   1
500   60187068   1
484   60207868   1
497   60228668   1
496   60249468   1
492   60270268   1
493   60291068   1
496   60311868   1
496   60332668   1
495   60353468   1
499   60374268   1
495   60395068   1
497   60415868   1
495   60436668   1
496   60457468   1
495   60478268   1
495   60499068   1
495   60519868   1
492   60540668   1
496   60561468   1
492   60582268   1
492   60603068   1
492   60623868   1
494   60644668   1
494   60665468   1
489   60686268   1
492   60707068   1
494   60727868   1
502   60748668   1
478   60769468   1
504   60790268   1
492   60811068   1
494   60831868   1
497   60852668   1
484   60873468   1
479   60894268   1
489   60915068   1
495   60935868   1
487   60956668   1
497   60977468   1
489   60998268   1
487   61019068   1
498   61039868   1
496   61060668   1
487   61081468   1
479   61102268   1
494   61123068   1
486   61143868   1
487   61164668   1
497   61185468   1
492   61206268   1
490   61227068   1
492   61247868   1
492   61268668   1
493   61289468   1
493   61310268   1
494   61331068   1
495   61351868   1
494   61372668   1
494   61393468   1
496   61414268   1
495   61435068   1
496   61455868   1
492   61476668   1
493   61497468   1
494   61518268   1
494   61539068   1
495   61559868   1
497   61580668   1
493   61601468   1
487   61622268   1
492   61643068   1
486   61663868   1
491   61684668   1
494   61705468   1
496   61726268   1
499   61747068   1
499   61767868   1
487   61788668   1
499   61809468   1
503   61830268   1
500   61851068   1
499   61871868   1
504   61892668   1
496   61913468   1
500   61934268   1
500   61955068   1
502   61975868   1
497   61996668   1
494   62017468   1
508   62038268   1
490   62059068   1
502   62079868   1
500   62100668   1
499   62121468   1
496   62142268   1
499   62163068   1
494   62183868   1
497   62204668   1
498   62225468   1
502   62246268   1
498   62267068   1
496   62287868   1
497   62308668   1
496   62329468   1
496   62350268   1
497   62371068   1
496   62391868   1
493   62412668   1
496   62433468   1
493   62454268   1
494   62475068   1
495   62495868   1
494   62516668   1
500   62537468   1
495   62558268   1
498   62579068   1
491   62599868   1
492   62620668   1
504   62641468   1
497   62662268   1
492   62683068   1
483   62703868   1
486   62724668   1
470   62745468   1
502   62766268   1
481   62787068   1
484   62807868   1
482   62828668   1
491   62849468   1
485   62870268   1
491   62891068   1
492   62911868   1
492   62932668   1
487   62953468   1
491   62974268   1
489   62995068   1
489   63015868   1
487   63036668   1
491   63057468   1
491   63078268   1
491   63099068   1
489   63119868   1
490   63140668   1
490   63161468   1
489   63182268   1
487   63203068   1
490   63223868   1
492   63244668   1
494   63265468   1
486   63286268   1
492   63307068   1
496   63327868   1
494   63348668   1
490   63369468   1
487   63390268   1
483   63411068   1
483   63431868   1
493   63452668   1
491   63473468   1
491   63494268   1
492   63515068   1
483   63535868   1
498   63556668   1
497   63577468   1
489   63598268   1
494   63619068   1
503   63639868   1
492   63660668   1
504   63681468   1
499   63702268   1
499   63723068   1
499   63743868   1
494   63764668   1
497   63785468   1
490   63806268   1
502   63827068   1
493   63847868   1
497   63868668   1
497   63889468   1
499   63910268   1
495   63931068   1
497   63951868   1
497   63972668   1
497   63993468   1
499   64014268   1
497   64035068   1
499   64055868   1
498   64076668   1
496   64097468   1
494   64118268   1
495   64139068   1
498   64159868   1
496   64180668   1
493   64201468   1
483   64222268   1
500   64243068   1
486   64263868   1
493   64284668   1
489   64305468   1
484   64326268   1
486   64347068   1
487   64367868   1
487   64388668   1
489   64409468   1
484   64430268   1
489   64451068   1
492   64471868   1
494   64492668   1
495   64513468   1
492   64534268   1
491   64555068   1
492   64575868   1
492   64596668   1
494   64617468   1
497   64638268   1
496   64659068   1
496   64679868   1
499   64700668   1
497   64721468   1
498   64742268   1
497   64763068   1
499   64783868   1
499   64804668   1
496   64825468   1
493   64846268   1
493   64867068   1
492   64887868   1
496   64908668   1
507   64929468   1
487   64950268   1
489   64971068   1
500   64991868   1
505   65012668   1
487   65033468   1
500   65054268   1
484   65075068   1
491   65095868   1
502   65116668   1
501   65137468   1
493   65158268   1
506   65179068   1
494   65199868   1
497   65220668   1
495   65241468   1
500   65262268   1
497   65283068   1
499   65303868   1
497   65324668   1
495   65345468   1
498   65366268   1
499   65387068   1
499   65407868   1
499   65428668   1
502   65449468   1
499   65470268   1
497   65491068   1
501   65511868   1
498   65532668   1
499   65553468   1
496   65574268   1
495   65595068   1
499   65615868   1
491   65636668   1
495   65657468   1
493   65678268   1
494   65699068   1
497   65719868   1
496   65740668   1
496   65761468   1
496   65782268   1
497   65803068   1
495   65823868   1
495   65844668   1
495   65865468   1
496   65886268   1
496   65907068   1
494   65927868   1
495   65948668   1
495   65969468   1
491   65990268   1
502   66011068   1
497   66031868   1
499   66052668   1
503   66073468   1
504   66094268   1
492   66115068   1
493   66135868   0
486   66156668   0
489   66177468   0
491   66198268   0
495   66219068   0
495   66239868   0
495   66260668   0
497   66281468   0
495   66302268   0
492   66323068   0
496   66343868   0
496   66364668   0
496   66385468   0
498   66406268   0
496   66427068   0
497   66447868   0
498   66468668   0
498   66489468   0
499   66510268   0
500   66531068   0
500   66551868   0
499   66572668   0
500   66593468   0
501   66614268   0
499   66635068   0
500   66655868   0
500   66676668   0
502   66697468   0
502   66718268   0
502   66739068   0
502   66759868   0
501   66780668   0
501   66801468   0
501   66822268   0
500   66843068   0
503   66863868   0
502   66884668   0
502   66905468   0
501   66926268   0
503   66947068   0
502   66967868   0
502   66988668   0
503   67009468   0
501   67030268   0
501   67051068   0
502   67071868   0
501   67092668   0
503   67113468   0
502   67134268   0
502   67155068   0
501   67175868   0
500   67196668   0
502   67217468   0
501   67238268   0
501   67259068   0
501   67279868   0
499   67300668   0
499   67321468   0
501   67342268   0
500   67363068   0
499   67383868   0
501   67404668   0
500   67425468   0
499   67446268   0
500   67467068   0
500   67487868   0
500   67508668   0
498   67529468   0
501   67550268   0
504   67571068   0
499   67591868   0
498   67612668   0
499   67633468   0
499   67654268   0
500   67675068   0
499   67695868   0
500   67716668   0
500   67737468   0
499   67758268   0
500   67779068   0
500   67799868   0
500   67820668   0
500   67841468   0
499   67862268   0
500   67883068   0
500   67903868   0
500   67924668   0
499   67945468   0
499   67966268   0
500   67987068   0
499   68007868   0
499   68028668   0
500   68049468   0
500   68070268   0
500   68091068   0
497   68111868   0
499   68132668   0
499   68153468   0
498   68174268   0
499   68195068   0
499   68215868   0
497   68236668   0
499   68257468   0
500   68278268   0
499   68299068   0
497   68319868   0
498   68340668   0
499   68361468   0
499   68382268   0
499   68403068   0
497   68423868   0
498   68444668   0
500   68465468   0
499   68486268   0
498   68507068   0
499   68527868   0
497   68548668   0
498   68569468   0
497   68590268   0
499   68611068   0
498   68631868   0
498   68652668   0
497   68673468   0
497   68694268   0
497   68715068   0
498   68735868   0
499   68756668   0
497   68777468   0
498   68798268   0
497   68819068   0
497   68839868   0
497   68860668   0
497   68881468   0
498   68902268   0
497   68923068   0
497   68943868   0
497   68964668   0
499   68985468   0
497   69006268   0
496   69027068   0
499   69047868   0
497   69068668   0
498   69089468   0
498   69110268   0
499   69131068   0
496   69151868   0
497   69172668   0
497   69193468   0
500   69214268   0
496   69235068   0
500   69255868   0
497   69276668   0
497   69297468   0
499   69318268   0
498   69339068   0
499   69359868   0
498   69380668   0
498   69401468   0
499   69422268   0
497   69443068   0
497   69463868   0
497   69484668   0
497   69505468   0
497   69526268   0
497   69547068   0
497   69567868   0
498   69588668   0
497   69609468   0
498   69630268   0
499   69651068   0
496   69671868   0
499   69692668   0
499   69713468   0
499   69734268   0
497   69755068   0
497   69775868   0
498   69796668   0
499   69817468   0
497   69838268   0
498   69859068   0
498   69879868   0
499   69900668   0
499   69921468   0
498   69942268   0
497   69963068   0
499   69983868   0
500   70004668   0
498   70025468   0
497   70046268   0
497   70067068   0
498   70087868   0
497   70108668   0
497   70129468   0
497   70150268   0
497   70171068   0
500   70191868   0
498   70212668   0
497   70233468   0
497   70254268   0
499   70275068   0
498   70295868   0
497   70316668   0
499   70337468   0
499   70358268   0
498   70379068   0
497   70399868   0
499   70420668   0
497   70441468   0
499   70462268   0
496   70483068   0
499   70503868   0
498   70524668   0
499   70545468   0
499   70566268   0
497   70587068   0
499   70607868   0
497   70628668   0
497   70649468   0
497   70670268   0
497   70691068   0
498   70711868   0
497   70732668   0
499   70753468   0
498   70774268   0
497   70795068   0
499   70815868   0
498   70836668   0
499   70857468   0
497   70878268   0
497   70899068   0
499   70919868   0
497   70940668   0
498   70961468   0
497   70982268   0
497   71003068   0
497   71023868   0
498   71044668   0
497   71065468   0
497   71086268   0
497   71107068   0
497   71127868   0
497   71148668   0
498   71169468   0
499   71190268   0
497   71211068   0
498   71231868   0
497   71252668   0
497   71273468   0
498   71294268   0
498   71315068   0
497   71335868   0
497   71356668   0
499   71377468   0
498   71398268   0
497   71419068   0
497   71439868   0
497   71460668   0
497   71481468   0
497   71502268   0
496   71523068   0
497   71543868   0
497   71564668   0
497   71585468   0
499   71606268   0
496   71627068   0
496   71647868   0
499   71668668   0
498   71689468   0
498   71710268   0
496   71731068   0
498   71751868   0
497   71772668   0
499   71793468   0
496   71814268   0
499   71835068   0
497   71855868   0
497   71876668   0
497   71897468   0
498   71918268   0
498   71939068   0
499   71959868   0
497   71980668   0
499   72001468   0
499   72022268   0
497   72043068   0
496   72063868   0
497   72084668   0
499   72105468   0
497   72126268   0
497   72147068   0
499   72167868   0
499   72188668   0
497   72209468   0
495   72230268   0
496   72251068   0
497   72271868   0
499   72292668   0
496   72313468   0
499   72334268   0
499   72355068   0
499   72375868   0
501   72396668   0
499   72417468   0
501   72438268   0
499   72459068   0
499   72479868   0
498   72500668   0
499   72521468   0
499   72542268   0
499   72563068   0
497   72583868   0
499   72604668   0
498   72625468   0
498   72646268   0
499   72667068   0
496   72687868   0
499   72708668   0
497   72729468   0
496   72750268   0
496   72771068   0
497   72791868   0
497   72812668   0
496   72833468   0
498   72854268   0
497   72875068   0
499   72895868   0
498   72916668   0
498   72937468   0
501   72958268   0
499   72979068   0
496   72999868   0
497   73020668   0
499   73041468   0
496   73062268   0
494   73083068   0
497   73103868   0
494   73124668   0
497   73145468   0
497   73166268   0
496   73187068   0
494   73207868   0
497   73228668   0
496   73249468   0
499   73270268   0
497   73291068   0
500   73311868   0
496   73332668   0
495   73353468   0
492   73374268   0
493   73395068   0
496   73415868   0
492   73436668   0
495   73457468   0
494   73478268   0
493   73499068   0
496   73519868   0
500   73540668   0
497   73561468   0
496   73582268   0
497   73603068   0
499   73623868   0
489   73644668   0
493   73665468   0
494   73686268   0
492   73707068   0
497   73727868   0
499   73748668   0
495   73769468   0
493   73790268   0
494   73811068   0
495   73831868   0
499   73852668   0
496   73873468   0
496   73894268   0
496   73915068   0
497   73935868   0
497   73956668   0
496   73977468   0
496   73998268   0
496   74019068   0
495   74039868   0
496   74060668   0
497   74081468   0
496   74102268   0
497   74123068   0
496   74143868   0
496   74164668   0
497   74185468   0
497   74206268   0
496   74227068   0
496   74247868   0
498   74268668   0
498   74289468   0
499   74310268   0
497   74331068   0
499   74351868   0
497   74372668   0
494   74393468   0
496   74414268   0
499   74435068   0
496   74455868   0
496   74476668   0
496   74497468   0
498   74518268   0
497   74539068   0
498   74559868   0
497   74580668   0
497   74601468   0
497   74622268   0
497   74643068   0
497   74663868   0
498   74684668   0
497   74705468   0
498   74726268   0
497   74747068   0
498   74767868   0
498   74788668   0
497   74809468   0
497   74830268   0
498   74851068   0
497   74871868   0
498   74892668   0
497   74913468   0
497   74934268   0
497   74955068   0
498   74975868   0
497   74996668   0
498   75017468   0
499   75038268   0
498   75059068   0
495   75079868   0
498   75100668   0
498   75121468   0
497   75142268   0
498   75163068   0
497   75183868   0
498   75204668   0
497   75225468   0
498   75246268   0
497   75267068   0
496   75287868   0
499   75308668   0
499   75329468   0
497   75350268   0
498   75371068   0
499   75391868   0
497   75412668   0
499   75433468   0
499   75454268   0
499   75475068   0
496   75495868   0
498   75516668   0
499   75537468   0
498   75558268   0
498   75579068   0
498   75599868   0
497   75620668   0
499   75641468   0
497   75662268   0
498   75683068   0
497   75703868   0
497   75724668   0
498   75745468   0
497   75766268   0
498   75787068   0
498   75807868   0
498   75828668   0
497   75849468   0
497   75870268   0
497   75891068   0
499   75911868   0
497   75932668   0
497   75953468   0
498   75974268   0
497   75995068   0
497   76015868   0
496   76036668   0
497   76057468   0
497   76078268   0
497   76099068   0
502   76119868   0
496   76140668   0
497   76161468   0
497   76182268   0
497   76203068   0
496   76223868   0
497   76244668   0
496   76265468   0
497   76286268   0
499   76307068   0
498   76327868   0
497   76348668   0
496   76369468   0
496   76390268   0
497   76411068   0
497   76431868   0
497   76452668   0
496   76473468   0
497   76494268   0
496   76515068   0
497   76535868   0
496   76556668   0
496   76577468   0
497   76598268   0
495   76619068   0
498   76639868   0
497   76660668   0
498   76681468   0
496   76702268   0
496   76723068   0
497   76743868   0
497   76764668   0
496   76785468   0
496   76806268   0
497   76827068   0
490   76847868   0
496   76868668   0
497   76889468   0
496   76910268   0
496   76931068   0
497   76951868   0
497   76972668   0
497   76993468   0
496   77014268   0
496   77035068   0
496   77055868   0
496   77076668   0
497   77097468   0
496   77118268   0
496   77139068   0
496   77159868   0
496   77180668   0
496   77201468   0
496   77222268   0
496   77243068   0
496   77263868   0
496   77284668   0
496   77305468   0
496   77326268   0
497   77347068   0
496   77367868   0
494   77388668   0
496   77409468   0
494   77430268   0
493   77451068   0
492   77471868   0
493   77492668   0
492   77513468   0
492   77534268   0
494   77555068   0
493   77575868   0
493   77596668   0
492   77617468   0
493   77638268   0
491   77659068   0
490   77679868   0
493   77700668   0
493   77721468   0
495   77742268   0
490   77763068   0
494   77783868   0
494   77804668   0
494   77825468   1
500   77846268   1
500   77867068   1
497   77887868   1
499   77908668   1
497   77929468   1
499   77950268   1
500   77971068   1
497   77991868   1
496   78012668   1
499   78033468   1
496   78054268   1
495   78075068   1
496   78095868   1
496   78116668   1
497   78137468   1
496   78158268   1
496   78179068   1
496   78199868   1
496   78220668   1
496   78241468   1
496   78262268   1
496   78283068   1
492   78303868   1
499   78324668   1
492   78345468   1
486   78366268   1
497   78387068   1
493   78407868   1
494   78428668   1
493   78449468   1
499   78470268   1
494   78491068   1
495   78511868   1
491   78532668   1
495   78553468   1
496   78574268   1
495   78595068   1
490   78615868   1
494   78636668   1
492   78657468   1
496   78678268   1
494   78699068   1
496   78719868   1
496   78740668   1
496   78761468   1
495   78782268   1
495   78803068   1
494   78823868   1
494   78844668   1
495   78865468   1
495   78886268   1
495   78907068   1
495   78927868   1
495   78948668   1
494   78969468   1
499   78990268   1
496   79011068   1
493   79031868   1
487   79052668   1
496   79073468   1
491   79094268   1
493   79115068   1
489   79135868   1
487   79156668   1
480   79177468   1
480   79198268   1
478   79219068   1
477   79239868   1
475   79260668   1
467   79281468   1
468   79302268   1
466   79323068   1
465   79343868   1
463   79364668   1
462   79385468   1
461   79406268   1
461   79427068   1
462   79447868   1
460   79468668   1
460   79489468   1
463   79510268   1
463   79531068   1
463   79551868   1
461   79572668   0
461   79593468   0
465   79614268   0
467   79635068   0
469   79655868   0
472   79676668   0
470   79697468   0
472   79718268   0
473   79739068   0
476   79759868   0
478   79780668   0
478   79801468   0
480   79822268   0
483   79843068   0
483   79863868   0
484   79884668   0
484   79905468   0
486   79926268   0
489   79947068   0
487   79967868   0
491   79988668   0
492   80009468   0
492   80030268   0
494   80051068   0
492   80071868   0
496   80092668   0
496   80113468   0
497   80134268   0
498   80155068   0
499   80175868   0
497   80196668   0
498   80217468   0
499   80238268   0
499   80259068   0
502   80279868   0
500   80300668   0
500   80321468   0
499   80342268   0
499   80363068   0
500   80383868   0
500   80404668   0
499   80425468   1
504   80446268   1
505   80467068   1
507   80487868   1
504   80508668   1
502   80529468   1
504   80550268   1
504   80571068   1
504   80591868   1
503   80612668   1
503   80633468   1
504   80654268   1
499   80675068   1
502   80695868   1
498   80716668   1
496   80737468   1
497   80758268   1
499   80779068   1
501   80799868   1
499   80820668   1
499   80841468   1
500   80862268   1
502   80883068   1
497   80903868   1
504   80924668   1
494   80945468   1
499   80966268   1
494   80987068   1
500   81007868   1
499   81028668   1
494   81049468   1
487   81070268   1
492   81091068   1
496   81111868   1
501   81132668   1
495   81153468   1
495   81174268   1
496   81195068   1
483   81215868   1
496   81236668   1
484   81257468   1
492   81278268   1
493   81299068   1
487   81319868   1
489   81340668   1
491   81361468   1
492   81382268   1
489   81403068   1
494   81423868   1
489   81444668   1
491   81465468   1
489   81486268   1
497   81507068   1
495   81527868   1
496   81548668   1
500   81569468   1
499   81590268   1
498   81611068   1
494   81631868   1
491   81652668   1
490   81673468   1
497   81694268   1
497   81715068   0
492   81735868   0
491   81756668   0
492   81777468   0
499   81798268   0
488   81819068   0
499   81839868   0
496   81860668   0
498   81881468   0
495   81902268   0
495   81923068   0
496   81943868   0
488   81964668   0
496   81985468   0
495   82006268   0
496   82027068   0
497   82047868   0
492   82068668   0
496   82089468   0
497   82110268   0
495   82131068   0
496   82151868   0
495   82172668   0
493   82193468   0
492   82214268   0
498   82235068   0
496   82255868   0
499   82276668   0
488   82297468   0
496   82318268   0
496   82339068   0
496   82359868   0
495   82380668   0
496   82401468   0
494   82422268   0
496   82443068   0
494   82463868   0
492   82484668   0
494   82505468   0
495   82526268   0
493   82547068   0
492   82567868   0
494   82588668   0
493   82609468   0
492   82630268   0
492   82651068   0
492   82671868   0
492   82692668   0
494   82713468   0
494   82734268   0
493   82755068   0
492   82775868   0
495   82796668   0
493   82817468   0
493   82838268   0
495   82859068   0
495   82879868   0
494   82900668   0
496   82921468   0
494   82942268   0
495   82963068   0
495   82983868   0
497   83004668   0
495   83025468   0
496   83046268   0
497   83067068   0
497   83087868   0
499   83108668   0
497   83129468   0
497   83150268   0
499   83171068   0
499   83191868   0
497   83212668   0
498   83233468   0
497   83254268   0
499   83275068   0
498   83295868   0
497   83316668   0
499   83337468   0
499   83358268   0
499   83379068   0
500   83399868   0
500   83420668   0
500   83441468   0
499   83462268   0
499   83483068   0
499   83503868   0
499   83524668   0
500   83545468   0
502   83566268   0
500   83587068   0
500   83607868   0
500   83628668   0
504   83649468   0
501   83670268   0
500   83691068   0
502   83711868   0
502   83732668   0
501   83753468   0
499   83774268   0
500   83795068   0
499   83815868   0
500   83836668   0
502   83857468   0
499   83878268   0
499   83899068   0
498   83919868   0
501   83940668   0
500   83961468   0
500   83982268   0
500   84003068   0
500   84023868   0
502   84044668   0
501   84065468   0
500   84086268   0
499   84107068   0
499   84127868   0
500   84148668   0
501   84169468   0
501   84190268   0
500   84211068   0
504   84231868   0
501   84252668   0
499   84273468   0
499   84294268   0
502   84315068   0
500   84335868   0
499   84356668   0
499   84377468   0
499   84398268   0
500   84419068   0
500   84439868   0
499   84460668   0
499   84481468   0
499   84502268   0
498   84523068   0
500   84543868   0
500   84564668   0
499   84585468   0
499   84606268   0
499   84627068   0
499   84647868   0
499   84668668   0
499   84689468   0
499   84710268   0
499   84731068   0
499   84751868   0
499   84772668   0
498   84793468   0
499   84814268   0
498   84835068   0
498   84855868   0
499   84876668   0
499   84897468   0
499   84918268   0
499   84939068   0
499   84959868   0
499   84980668   0
499   85001468   0
499   85022268   0
499   85043068   0
498   85063868   0
499   85084668   0
498   85105468   0
499   85126268   0
498   85147068   0
500   85167868   0
497   85188668   0
498   85209468   0
498   85230268   0
499   85251068   0
499   85271868   0
499   85292668   0
500   85313468   0
498   85334268   0
498   85355068   0
499   85375868   0
497   85396668   0
499   85417468   0
497   85438268   0
498   85459068   0
497   85479868   0
498   85500668   0
499   85521468   0
498   85542268   0
499   85563068   0
496   85583868   0
499   85604668   0
499   85625468   0
497   85646268   0
497   85667068   0
497   85687868   0
497   85708668   0
496   85729468   0
496   85750268   0
497   85771068   0
496   85791868   0
498   85812668   0
499   85833468   0
498   85854268   0
496   85875068   0
499   85895868   0
498   85916668   0
497   85937468   0
498   85958268   0
497   85979068   0
496   85999868   0
496   86020668   0
496   86041468   0
494   86062268   0
498   86083068   0
497   86103868   0
497   86124668   0
496   86145468   0
496   86166268   0
497   86187068   0
497   86207868   0
497   86228668   0
496   86249468   0
497   86270268   0
496   86291068   0
495   86311868   0
497   86332668   0
496   86353468   0
496   86374268   0
495   86395068   0
496   86415868   0
495   86436668   0
494   86457468   0
495   86478268   0
496   86499068   0
495   86519868   0
495   86540668   0
495   86561468   0
496   86582268   0
495   86603068   0
495   86623868   0
496   86644668   0
496   86665468   0
496   86686268   0
497   86707068   0
496   86727868   0
496   86748668   0
496   86769468   0
496   86790268   0
497   86811068   0
496   86831868   0
496   86852668   0
496   86873468   0
497   86894268   0
497   86915068   0
498   86935868   0
497   86956668   0
497   86977468   0
496   86998268   0
497   87019068   0
497   87039868   0
496   87060668   0
497   87081468   0
497   87102268   0
496   87123068   0
491   87143868   0
496   87164668   0
497   87185468   0
497   87206268   0
496   87227068   0
496   87247868   0
497   87268668   0
496   87289468   0
496   87310268   0
497   87331068   0
496   87351868   0
497   87372668   0
498   87393468   0
496   87414268   0
496   87435068   0
496   87455868   0
497   87476668   0
496   87497468   0
497   87518268   0
496   87539068   0
496   87559868   0
497   87580668   0
497   87601468   0
496   87622268   0
496   87643068   0
497   87663868   0
496   87684668   0
496   87705468   0
494   87726268   0
495   87747068   0
494   87767868   0
493   87788668   0
492   87809468   0
492   87830268   0