EMGValue   Timestamp   TrueFlexState
96   31087868   0
494   31108668   0
496   31129468   0
496   31150268   0
495   31171068   0
495   31191868   0
497   31212668   0
496   31233468   0
496   31254268   0
496   31275068   0
496   31295868   0
496   31316668   0
496   31337468   0
496   31358268   0
496   31379068   0
496   31399868   0
496   31420668   0
496   31441468   0
496   31462268   0
496   31483068   0
495   31503868   0
496   31524668   0
496   31545468   0
496   31566268   0
496   31587068   0
495   31607868   0
496   31628668   0
495   31649468   0
496   31670268   0
495   31691068   0
496   31711868   0
496   31732668   0
496   31753468   0
496   31774268   0
496   31795068   0
496   31815868   0
496   31836668   0
495   31857468   0
496   31878268   0
496   31899068   0
496   31919868   0
496   31940668   0
496   31961468   0
495   31982268   0
496   32003068   0
496   32023868   0
495   32044668   0
496   32065468   0
495   32086268   0
497   32107068   0
496   32127868   0
495   32148668   0
495   32169468   0
495   32190268   0
496   32211068   0
497   32231868   0
495   32252668   0
496   32273468   0
496   32294268   0
497   32315068   0
496   32335868   0
496   32356668   0
496   32377468   0
496   32398268   0
496   32419068   0
496   32439868   0
496   32460668   0
496   32481468   0
496   32502268   0
495   32523068   0
495   32543868   0
496   32564668   0
496   32585468   0
496   32606268   0
496   32627068   0
496   32647868   0
496   32668668   0
496   32689468   0
496   32710268   0
497   32731068   0
496   32751868   0
496   32772668   0
496   32793468   0
496   32814268   0
496   32835068   0
496   32855868   0
494   32876668   0
496   32897468   0
496   32918268   0
496   32939068   0
496   32959868   0
496   32980668   0
496   33001468   0
496   33022268   0
496   33043068   0
496   33063868   0
496   33084668   0
496   33105468   0
496   33126268   0
496   33147068   0
495   33167868   0
496   33188668   0
496   33209468   0
496   33230268   0
496   33251068   0
496   33271868   0
496   33292668   0
496   33313468   0
496   33334268   0
496   33355068   0
496   33375868   0
496   33396668   0
496   33417468   0
496   33438268   0
496   33459068   0
496   33479868   0
496   33500668   0
496   33521468   0
495   33542268   0
496   33563068   0
496   33583868   0
496   33604668   0
496   33625468   0
496   33646268   0
495   33667068   0
496   33687868   0
496   33708668   0
496   33729468   0
496   33750268   0
496   33771068   0
496   33791868   0
496   33812668   0
495   33833468   0
495   33854268   0
496   33875068   0
496   33895868   0
496   33916668   0
496   33937468   0
496   33958268   0
496   33979068   0
496   33999868   0
495   34020668   0
496   34041468   0
496   34062268   0
496   34083068   0
496   34103868   0
496   34124668   0
495   34145468   0
495   34166268   0
496   34187068   0
495   34207868   0
496   34228668   0
495   34249468   0
495   34270268   0
496   34291068   0
495   34311868   0
496   34332668   0
495   34353468   0
496   34374268   0
495   34395068   0
496   34415868   0
496   34436668   0
495   34457468   0
496   34478268   0
495   34499068   0
496   34519868   0
495   34540668   0
496   34561468   0
496   34582268   0
494   34603068   0
496   34623868   0
496   34644668   0
495   34665468   0
495   34686268   0
496   34707068   0
495   34727868   0
496   34748668   0
495   34769468   0
495   34790268   0
495   34811068   0
496   34831868   0
496   34852668   0
496   34873468   0
496   34894268   0
496   34915068   0
495   34935868   0
498   34956668   0
497   34977468   0
496   34998268   0
495   35019068   0
495   35039868   0
496   35060668   0
496   35081468   0
496   35102268   0
496   35123068   0
496   35143868   0
497   35164668   0
495   35185468   0
496   35206268   0
496   35227068   0
496   35247868   0
496   35268668   0
496   35289468   0
496   35310268   0
496   35331068   0
496   35351868   0
497   35372668   0
496   35393468   0
496   35414268   0
496   35435068   0
496   35455868   0
496   35476668   0
496   35497468   0
496   35518268   0
496   35539068   0
497   35559868   0
496   35580668   0
495   35601468   0
497   35622268   0
495   35643068   0
496   35663868   0
496   35684668   0
496   35705468   0
495   35726268   0
496   35747068   0
496   35767868   0
496   35788668   0
496   35809468   0
495   35830268   0
496   35851068   0
496   35871868   0
495   35892668   0
496   35913468   0
496   35934268   0
496   35955068   0
496   35975868   0
496   35996668   0
495   36017468   0
496   36038268   0
496   36059068   0
496   36079868   0
496   36100668   0
496   36121468   0
496   36142268   0
497   36163068   0
496   36183868   0
496   36204668   0
496   36225468   0
496   36246268   0
496   36267068   0
496   36287868   0
496   36308668   0
496   36329468   0
496   36350268   0
496   36371068   0
496   36391868   0
497   36412668   0
496   36433468   0
496   36454268   0
496   36475068   0
496   36495868   0
496   36516668   0
496   36537468   0
497   36558268   0
496   36579068   0
496   36599868   0
496   36620668   0
496   36641468   0
496   36662268   0
496   36683068   0
496   36703868   0
496   36724668   0
496   36745468   0
496   36766268   0
496   36787068   0
496   36807868   0
496   36828668   0
496   36849468   0
496   36870268   0
496   36891068   0
496   36911868   0
497   36932668   0
496   36953468   0
496   36974268   0
496   36995068   0
496   37015868   0
495   37036668   0
496   37057468   0
496   37078268   0
496   37099068   0
496   37119868   0
496   37140668   0
496   37161468   0
496   37182268   0
495   37203068   0
496   37223868   0
496   37244668   0
496   37265468   0
496   37286268   0
496   37307068   0
495   37327868   0
495   37348668   0
496   37369468   0
496   37390268   0
494   37411068   0
495   37431868   0
496   37452668   0
496   37473468   0
496   37494268   0
496   37515068   0
497   37535868   0
496   37556668   0
496   37577468   0
496   37598268   0
496   37619068   0
496   37639868   0
497   37660668   0
496   37681468   0
496   37702268   0
496   37723068   0
496   37743868   0
496   37764668   0
496   37785468   0
496   37806268   0
496   37827068   0
496   37847868   0
496   37868668   0
495   37889468   0
496   37910268   0
496   37931068   0
496   37951868   0
496   37972668   0
496   37993468   0
497   38014268   0
496   38035068   0
496   38055868   0
496   38076668   0
496   38097468   0
496   38118268   0
496   38139068   0
496   38159868   0
497   38180668   0
496   38201468   0
495   38222268   0
496   38243068   0
496   38263868   0
496   38284668   0
496   38305468   0
496   38326268   0
496   38347068   0
496   38367868   0
496   38388668   0
495   38409468   0
495   38430268   0
496   38451068   0
496   38471868   0
495   38492668   0
496   38513468   0
496   38534268   0
496   38555068   0
495   38575868   0
496   38596668   0
496   38617468   0
496   38638268   0
496   38659068   0
496   38679868   0
494   38700668   0
494   38721468   0
495   38742268   0
495   38763068   0
494   38783868   0
495   38804668   0
495   38825468   0
495   38846268   0
496   38867068   0
496   38887868   0
495   38908668   0
495   38929468   0
496   38950268   0
495   38971068   0
496   38991868   0
496   39012668   0
495   39033468   0
495   39054268   0
495   39075068   0
496   39095868   0
496   39116668   0
496   39137468   0
496   39158268   0
496   39179068   0
496   39199868   0
496   39220668   0
496   39241468   0
497   39262268   0
496   39283068   0
496   39303868   0
496   39324668   0
496   39345468   0
496   39366268   0
496   39387068   0
496   39407868   0
496   39428668   0
496   39449468   0
496   39470268   0
496   39491068   0
496   39511868   0
496   39532668   0
495   39553468   0
496   39574268   0
496   39595068   0
495   39615868   0
496   39636668   0
496   39657468   0
495   39678268   0
496   39699068   0
496   39719868   0
496   39740668   0
496   39761468   0
496   39782268   0
495   39803068   0
496   39823868   0
496   39844668   0
496   39865468   0
496   3988629868   0
497   47020668   0
497   47041468   0
497   47062268   0
497   47083068   0
497   47103868   0
497   47124668   0
496   47145468   0
496   47166268   0
497   47187068   0
497   47207868   0
496   47228668   0
496   47249468   0
497   47270268   0
496   47291068   0
495   47311868   0
496   47332668   0
496   47353468   0
496   47374268   0
495   47395068   0
496   47415868   0
496   47436668   0
495   47457468   0
496   47478268   0
496   47499068   0
495   47519868   0
495   47540668   0
494   47561468   0
496   47582268   0
495   47603068   0
495   47623868   0
495   47644668   0
495   47665468   0
494   47686268   0
495   47707068   0
494   47727868   0
495   47748668   0
495   47769468   0
494   47790268   0
494   47811068   0
495   47831868   0
495   47852668   0
496   47873468   0
495   47894268   0
495   47915068   0
495   47935868   0
495   47956668   0
495   47977468   0
495   47998268   0
494   48019068   0
496   48039868   0
496   48060668   0
495   48081468   0
496   48102268   0
496   48123068   0
492   48143868   0
493   48164668   0
497   48185468   0
492   48206268   0
494   48227068   0
495   48247868   0
497   48268668   0
496   48289468   0
494   48310268   0
497   48331068   0
496   48351868   0
494   48372668   0
495   48393468   0
495   48414268   0
494   48435068   0
495   48455868   0
495   48476668   0
494   48497468   0
495   48518268   0
495   48539068   0
493   48559868   0
495   48580668   0
496   48601468   0
495   48622268   0
495   48643068   0
496   48663868   0
494   48684668   0
496   48705468   0
495   48726268   0
495   48747068   0
495   48767868   0
495   48788668   0
496   48809468   0
496   48830268   0
495   48851068   0
495   48871868   0
496   48892668   0
495   48913468   0
496   48934268   0
495   48955068   0
496   48975868   0
495   48996668   0
495   49017468   0
494   49038268   0
496   49059068   0
496   49079868   0
495   49100668   0
496   49121468   0
495   49142268   0
495   49163068   0
495   49183868   0
496   49204668   0
496   49225468   0
496   49246268   0
495   49267068   0
496   49287868   0
496   49308668   0
496   49329468   0
496   49350268   0
496   49371068   0
496   49391868   0
492   49412668   0
496   49433468   0
496   49454268   0
496   49475068   0
496   49495868   0
496   49516668   0
496   49537468   0
496   49558268   0
495   49579068   0
496   49599868   0
495   49620668   0
495   49641468   0
496   49662268   0
495   49683068   0
495   49703868   0
496   49724668   0
496   49745468   0
495   49766268   0
496   49787068   0
495   49807868   0
496   49828668   0
496   49849468   0
496   49870268   0
496   49891068   0
496   49911868   0
496   49932668   0
496   49953468   0
495   49974268   0
496   49995068   0
496   50015868   0
496   50036668   0
496   50057468   0
496   50078268   0
496   50099068   0
496   50119868   0
496   50140668   0
496   50161468   0
496   50182268   0
496   50203068   0
496   50223868   0
496   50244668   0
496   50265468   0
496   50286268   0
496   50307068   0
496   50327868   0
496   50348668   0
496   50369468   0
496   50390268   0
496   50411068   0
496   50431868   0
495   50452668   0
496   50473468   0
496   50494268   0
496   50515068   0
496   50535868   0
496   50556668   0
497   50577468   0
497   50598268   0
497   50619068   0
496   50639868   0
496   50660668   0
496   50681468   0
496   50702268   0
496   50723068   0
496   50743868   0
496   50764668   0
496   50785468   0
496   50806268   0
496   50827068   0
496   50847868   0
496   50868668   0
496   50889468   0
496   50910268   0
496   50931068   0
496   50951868   0
496   50972668   0
496   50993468   0
496   51014268   0
496   51035068   0
497   51055868   0
496   51076668   0
496   51097468   0
497   51118268   0
497   51139068   0
497   51159868   0
496   51180668   0
496   51201468   0
497   51222268   0
497   51243068   0
496   51263868   0
496   51284668   0
496   51305468   0
497   51326268   0
497   51347068   0
497   51367868   0
497   51388668   0
497   51409468   0
497   51430268   0
496   51451068   0
496   51471868   0
496   51492668   0
496   51513468   0
497   51534268   0
496   51555068   0
496   51575868   0
496   51596668   0
497   51617468   0
497   51638268   0
496   51659068   0
497   51679868   0
496   51700668   0
497   51721468   0
496   51742268   0
496   51763068   0
496   51783868   0
496   51804668   0
496   51825468   0
496   51846268   0
496   51867068   0
496   51887868   0
496   51908668   0
496   51929468   0
496   51950268   0
497   51971068   0
496   51991868   0
496   52012668   0
496   52033468   0
496   52054268   0
496   52075068   0
496   52095868   0
496   52116668   0
496   52137468   0
496   52158268   0
496   52179068   0
496   52199868   0
496   52220668   0
496   52241468   0
496   52262268   0
497   52283068   0
496   52303868   0
496   52324668   0
496   52345468   0
496   52366268   0
497   52387068   0
497   52407868   0
496   52428668   0
496   52449468   0
496   52470268   0
497   52491068   0
497   52511868   0
496   52532668   0
496   52553468   0
496   52574268   0
497   52595068   0
496   52615868   0
496   52636668   0
496   52657468   0
496   52678268   0
497   52699068   0
497   52719868   0
496   52740668   0
496   52761468   0
496   52782268   0
496   52803068   0
496   52823868   0
496   52844668   0
496   52865468   0
496   52886268   0
496   52907068   0
496   52927868   0
496   52948668   0
496   52969468   0
496   52990268   0
496   53011068   0
496   53031868   0
496   53052668   0
496   53073468   0
496   53094268   0
496   53115068   0
496   53135868   0
496   53156668   0
496   53177468   0
497   53198268   0
497   53219068   0
496   53239868   0
496   53260668   0
496   53281468   0
496   53302268   0
496   53323068   0
496   53343868   0
496   53364668   0
496   53385468   0
496   53406268   0
496   53427068   0
496   53447868   0
496   53468668   0
496   53489468   0
496   53510268   0
496   53531068   0
496   53551868   0
496   53572668   0
496   53593468   0
496   53614268   0
495   53635068   0
496   53655868   0
496   53676668   0
497   53697468   0
496   53718268   0
496   53739068   0
496   53759868   0
496   53780668   0
496   53801468   0
496   53822268   0
496   53843068   0
496   53863868   0
496   53884668   0
496   53905468   0
496   53926268   0
496   53947068   0
496   53967868   0
496   53988668   0
496   54009468   0
496   54030268   0
496   54051068   0
496   54071868   0
496   54092668   0
496   54113468   0
496   54134268   0
496   54155068   0
496   54175868   0
496   54196668   0
496   54217468   0
497   54238268   0
496   54259068   0
496   54279868   0
497   54300668   0
497   54321468   0
496   54342268   0
496   54363068   0
496   54383868   0
496   54404668   0
496   54425468   0
496   54446268   0
496   54467068   0
496   54487868   0
496   54508668   0
496   54529468   0
496   54550268   0
496   54571068   0
496   54591868   0
496   54612668   0
496   54633468   0
496   54654268   0
496   54675068   0
497   54695868   0
496   54716668   0
496   54737468   0
496   54758268   0
496   54779068   0
497   54799868   0
496   54820668   0
497   54841468   0
496   54862268   0
497   54883068   0
496   54903868   0
497   54924668   0
497   54945468   0
496   54966268   0
496   54987068   0
496   55007868   0
497   55028668   0
497   55049468   0
497   55070268   0
497   55091068   0
496   55111868   0
498   55132668   0
496   55153468   0
496   55174268   0
497   55195068   0
496   55215868   0
496   55236668   0
496   55257468   0
496   55278268   0
496   55299068   0
497   55319868   0
496   55340668   0
496   55361468   0
496   55382268   0
496   55403068   0
496   55423868   0
496   55444668   0
496   55465468   0
496   55486268   0
496   55507068   0
497   55527868   0
496   55548668   0
497   55569468   0
497   55590268   0
496   55611068   0
496   55631868   0
497   55652668   0
497   55673468   0
496   55694268   0
496   55715068   0
496   55735868   0
496   55756668   0
497   55777468   0
496   55798268   0
496   55819068   0
495   55839868   0
496   55860668   0
496   55881468   0
496   55902268   0
496   55923068   0
495   55943868   0
496   55964668   0
497   55985468   0
496   56006268   0
496   56027068   0
496   56047868   0
496   56068668   0
496   56089468   0
496   56110268   0
496   56131068   0
496   56151868   0
497   56172668   0
496   56193468   0
496   56214268   0
496   56235068   0
495   56255868   0
496   56276668   0
496   56297468   0
496   56318268   0
496   56339068   0
496   56359868   0
498   56380668   0
496   56401468   0
496   56422268   0
497   56443068   0
496   56463868   0
496   56484668   0
496   56505468   0
496   56526268   0
496   56547068   0
496   56567868   0
496   56588668   0
497   56609468   0
496   56630268   0
496   56651068   0
496   56671868   0
496   56692668   0
497   56713468   0
496   56734268   0
497   56755068   0
496   56775868   0
496   56796668   0
496   56817468   0
496   56838268   0
496   56859068   0
496   56879868   0
497   56900668   0
497   56921468   0
496   56942268   0
497   56963068   0
496   56983868   0
496   57004668   0
497   57025468   0
496   57046268   0
497   57067068   0
496   57087868   0
495   57108668   0
497   57129468   0
497   57150268   0
496   57171068   0
497   57191868   0
497   57212668   0
497   57233468   0
497   57254268   0
497   57275068   0
497   57295868   0
497   57316668   0
496   57337468   0
497   57358268   0
497   57379068   0
496   57399868   0
496   57420668   0
497   57441468   0
497   57462268   0
498   57483068   0
497   57503868   0
496   57524668   0
497   57545468   0
497   57566268   0
496   57587068   0
497   57607868   0
496   57628668   0
497   57649468   0
497   57670268   0
496   57691068   0
496   57711868   0
497   57732668   0
497   57753468   0
496   57774268   0
497   57795068   0
496   57815868   0
496   57836668   0
496   57857468   0
497   57878268   0
496   57899068   0
496   57919868   0
496   57940668   0
497   57961468   0
495   57982268   0
496   58003068   0
496   58023868   0
496   58044668   0
496   58065468   0
496   58086268   0
496   58107068   0
496   58127868   0
497   58148668   0
497   58169468   0
497   58190268   0
496   58211068   0
496   58231868   0
497   58252668   0
498   58273468   0
497   58294268   0
496   58315068   0
497   58335868   0
496   58356668   0
496   58377468   0
497   58398268   0
496   58419068   0
497   58439868   0
496   58460668   0
496   58481468   0
497   58502268   0
496   58523068   0
496   58543868   0
496   58564668   0
497   58585468   0
496   58606268   0
496   58627068   0
495   58647868   0
497   58668668   0
496   58689468   0
496   58710268   0
497   58731068   0
496   58751868   0
496   58772668   0
496   58793468   0
497   58814268   0
496   58835068   0
496   58855868   0
496   58876668   0
496   58897468   0
497   58918268   0
496   58939068   0
498   58959868   0
496   58980668   0
498   59001468   0
495   59022268   0
497   59043068   0
496   59063868   0
499   59084668   0
497   59105468   0
505   59126268   0
497   59147068   0
496   59167868   0
497   59188668   0
500   59209468   0
496   59230268   0
496   59251068   0
497   59271868   0
493   59292668   0
499   59313468   0
497   59334268   0
501   59355068   0
497   59375868   0
508   59396668   0
498   59417468   0
500   59438268   0
504   59459068   1
499   59479868   1
505   59500668   1
501   59521468   1
502   59542268   1
499   59563068   1
499   59583868   1
500   59604668   1
500   59625468   1
499   59646268   1
499   59667068   1
497   59687868   1
497   59708668   1
497   59729468   1
497   59750268   1
496   59771068   1
496   59791868   1
496   59812668   1
496   59833468   1
496   59854268   1
495   59875068   1
496   59895868   1
495   59916668   1
494   59937468   1
495   59958268   1
495   59979068   1
494   59999868   1
494   60020668   1
495   60041468   1
494   60062268   1
495   60083068   1
494   60103868   1
495   60124668   1
495   60145468   1
494   60166268   1
495   60187068   1
493   60207868   1
494   60228668   1
493   60249468   1
495   60270268   1
494   60291068   1
494   60311868   1
494   60332668   1
494   60353468   1
495   60374268   1
494   60395068   1
494   60415868   1
494   60436668   1
494   60457468   1
494   60478268   1
494   60499068   1
495   60519868   1
493   60540668   1
494   60561468   1
494   60582268   1
494   60603068   1
495   60623868   1
495   60644668   1
495   60665468   1
494   60686268   1
495   60707068   1
494   60727868   1
494   60748668   1
494   60769468   1
494   60790268   1
494   60811068   1
494   60831868   1
494   60852668   1
495   60873468   1
493   60894268   1
495   60915068   1
495   60935868   1
494   60956668   1
496   60977468   1
495   60998268   1
494   61019068   1
495   61039868   1
494   61060668   1
495   61081468   1
494   61102268   1
493   61123068   1
499   61143868   1
495   61164668   1
494   61185468   1
494   61206268   1
495   61227068   1
494   61247868   1
495   61268668   1
495   61289468   1
495   61310268   1
495   61331068   1
495   61351868   1
495   61372668   1
495   61393468   1
494   61414268   1
495   61435068   1
494   61455868   1
495   61476668   1
495   61497468   1
495   61518268   1
494   61539068   1
495   61559868   1
495   61580668   1
494   61601468   1
495   61622268   1
494   61643068   1
495   61663868   1
494   61684668   1
494   61705468   1
495   61726268   1
494   61747068   1
494   61767868   1
494   61788668   1
495   61809468   1
494   61830268   1
494   61851068   1
494   61871868   1
494   61892668   1
495   61913468   1
495   61934268   1
494   61955068   1
494   61975868   1
493   61996668   1
494   62017468   1
495   62038268   1
494   62059068   1
494   62079868   1
495   62100668   1
494   62121468   1
495   62142268   1
494   62163068   1
494   62183868   1
495   62204668   1
495   62225468   1
496   62246268   1
495   62267068   1
495   62287868   1
494   62308668   1
496   62329468   1
495   62350268   1
494   62371068   1
496   62391868   1
495   62412668   1
494   62433468   1
495   62454268   1
493   62475068   1
494   62495868   1
496   62516668   1
494   62537468   1
494   62558268   1
495   62579068   1
495   62599868   1
494   62620668   1
495   62641468   1
494   62662268   1
494   62683068   1
495   62703868   1
495   62724668   1
494   62745468   1
493   62766268   1
493   62787068   1
495   62807868   1
494   62828668   1
495   62849468   1
495   62870268   1
494   62891068   1
495   62911868   1
495   62932668   1
494   62953468   1
494   62974268   1
495   62995068   1
494   63015868   1
495   63036668   1
495   63057468   1
494   63078268   1
494   63099068   1
496   63119868   0
489   63140668   0
493   63161468   0
489   63182268   0
489   63203068   0
491   63223868   0
493   63244668   0
493   63265468   0
493   63286268   0
493   63307068   0
494   63327868   0
494   63348668   0
494   63369468   0
494   63390268   0
493   63411068   0
494   63431868   0
494   63452668   0
494   63473468   0
494   63494268   0
494   63515068   0
494   63535868   0
494   63556668   0
495   63577468   0
494   63598268   0
496   63619068   0
496   63639868   0
495   63660668   0
494   63681468   0
495   63702268   0
496   63723068   0
495   63743868   0
495   63764668   0
495   63785468   0
496   63806268   0
494   63827068   0
495   63847868   0
495   63868668   0
495   63889468   0
495   63910268   0
495   63931068   0
495   63951868   0
496   63972668   0
495   63993468   0
496   64014268   0
495   64035068   0
496   64055868   0
496   64076668   0
496   64097468   0
496   64118268   0
497   64139068   0
496   64159868   0
496   64180668   0
496   64201468   0
496   64222268   0
497   64243068   0
496   64263868   0
496   64284668   0
496   64305468   0
496   64326268   0
496   64347068   0
496   64367868   0
496   64388668   0
496   64409468   0
496   64430268   0
494   64451068   0
496   64471868   0
496   64492668   0
496   64513468   0
496   64534268   0
496   64555068   0
495   64575868   0
496   64596668   0
496   64617468   0
496   64638268   0
496   64659068   0
496   64679868   0
496   64700668   0
496   64721468   0
495   64742268   0
496   64763068   0
497   64783868   0
496   64804668   0
496   64825468   0
496   64846268   0
496   64867068   0
496   64887868   0
496   64908668   0
496   64929468   0
496   64950268   0
496   64971068   0
497   64991868   0
495   65012668   0
496   65033468   0
496   65054268   0
497   65075068   0
496   65095868   0
496   65116668   0
496   65137468   0
497   65158268   0
496   65179068   0
496   65199868   0
497   65220668   0
494   65241468   0
497   65262268   0
492   65283068   0
497   65303868   0
499   65324668   0
497   65345468   0
496   65366268   0
494   65387068   0
496   65407868   0
497   65428668   0
497   65449468   0
498   65470268   0
499   65491068   0
499   65511868   0
496   65532668   0
497   65553468   0
496   65574268   0
498   65595068   0
497   65615868   0
497   65636668   0
496   65657468   0
499   65678268   0
496   65699068   0
499   65719868   0
497   65740668   0
497   65761468   0
499   65782268   0
496   65803068   0
499   65823868   0
496   65844668   0
496   65865468   0
498   65886268   0
499   65907068   0
497   65927868   0
498   65948668   0
497   65969468   0
496   65990268   0
495   66011068   0
499   66031868   0
494   66052668   0
496   66073468   0
497   66094268   0
496   66115068   0
499   66135868   0
494   66156668   0
496   66177468   0
494   66198268   0
498   66219068   0
486   66239868   0
512   66260668   0
497   66281468   0
475   66302268   0
520   66323068   0
490   66343868   0
502   66364668   0
513   66385468   0
496   66406268   0
496   66427068   0
489   66447868   0
509   66468668   0
499   66489468   0
495   66510268   0
499   66531068   0
496   66551868   0
496   66572668   0
496   66593468   0
496   66614268   0
497   66635068   0
499   66655868   0
497   66676668   0
496   66697468   0
496   66718268   0
497   66739068   0
496   66759868   0
495   66780668   0
496   66801468   0
495   66822268   0
495   66843068   0
495   66863868   0
495   66884668   0
495   66905468   0
495   66926268   0
495   66947068   0
496   66967868   0
495   66988668   0
495   67009468   0
496   67030268   0
496   67051068   0
496   67071868   0
496   67092668   0
495   67113468   0
496   67134268   0
494   67155068   0
496   67175868   0
495   67196668   0
496   67217468   0
495   67238268   0
494   67259068   0
494   67279868   0
495   67300668   0
496   67321468   0
496   67342268   0
495   67363068   0
496   67383868   0
496   67404668   0
495   67425468   0
496   67446268   0
496   67467068   0
496   67487868   0
496   67508668   0
496   67529468   0
496   67550268   0
495   67571068   0
496   67591868   0
496   67612668   0
496   67633468   0
496   67654268   0
495   67675068   0
494   67695868   0
495   67716668   0
495   67737468   0
495   67758268   0
494   67779068   0
495   67799868   0
496   67820668   0
495   67841468   0
496   67862268   0
495   67883068   0
495   67903868   0
495   67924668   0
495   67945468   0
495   67966268   0
495   67987068   0
493   68007868   0
495   68028668   0
495   68049468   0
496   68070268   0
494   68091068   0
496   68111868   0
494   68132668   0
496   68153468   0
496   68174268   0
495   68195068   0
496   68215868   0
496   68236668   0
495   68257468   0
497   68278268   0
494   68299068   0
496   68319868   0
496   68340668   0
496   68361468   0
495   68382268   0
496   68403068   0
496   68423868   0
495   68444668   0
496   68465468   0
494   68486268   0
495   68507068   0
496   68527868   0
495   68548668   0
494   68569468   0
496   68590268   0
497   68611068   0
494   68631868   0
495   68652668   0
495   68673468   0
496   68694268   0
496   68715068   0
495   68735868   0
496   68756668   0
496   68777468   0
496   68798268   0
494   68819068   0
496   68839868   0
495   68860668   0
496   68881468   0
496   68902268   0
496   68923068   0
496   68943868   0
496   68964668   0
495   68985468   0
496   69006268   0
496   69027068   0
496   69047868   0
493   69068668   0
496   69089468   0
494   69110268   0
496   69131068   0
495   69151868   0
495   69172668   0
496   69193468   0
495   69214268   0
494   69235068   0
496   69255868   0
496   69276668   0
496   69297468   0
495   69318268   0
496   69339068   0
495   69359868   0
496   69380668   0
496   69401468   0
496   69422268   0
495   69443068   0
496   69463868   0
496   69484668   0
496   69505468   0
496   69526268   0
496   69547068   0
495   69567868   0
495   69588668   0
496   69609468   0
495   69630268   0
496   69651068   0
495   69671868   0
496   69692668   0
495   69713468   0
496   69734268   0
496   69755068   0
496   69775868   0
496   69796668   0
496   69817468   0
496   69838268   0
496   69859068   0
496   69879868   0
495   69900668   0
496   69921468   0
496   69942268   0
496   69963068   0
495   69983868   0
496   70004668   0
496   70025468   0
496   70046268   0
496   70067068   0
496   70087868   0
498   70108668   0
496   70129468   0
496   70150268   0
496   70171068   0
496   70191868   0
496   70212668   0
496   70233468   0
496   70254268   0
496   70275068   0
496   70295868   0
496   70316668   0
496   70337468   0
496   70358268   0
496   70379068   0
495   70399868   0
495   70420668   0
496   70441468   0
495   70462268   0
496   70483068   0
495   70503868   0
495   70524668   0
495   70545468   0
496   70566268   0
495   70587068   0
495   70607868   0
495   70628668   0
495   70649468   0
496   70670268   0
496   70691068   0
495   70711868   0
495   70732668   0
496   70753468   0
496   70774268   0
496   70795068   0
495   70815868   0
496   70836668   0
496   70857468   0
495   70878268   0
496   70899068   0
496   70919868   0
496   70940668   0
496   70961468   0
496   70982268   0
496   71003068   0
496   71023868   0
496   71044668   0
496   71065468   0
496   71086268   0
496   71107068   0
496   71127868   0
496   71148668   0
495   71169468   0
496   71190268   0
496   71211068   0
496   71231868   0
496   71252668   0
495   71273468   0
496   71294268   0
496   71315068   0
496   71335868   0
496   71356668   0
495   71377468   0
496   71398268   0
496   71419068   0
496   71439868   0
496   71460668   0
496   71481468   0
496   71502268   0
497   71523068   0
496   71543868   0
496   71564668   0
496   71585468   0
496   71606268   0
496   71627068   0
496   71647868   0
496   71668668   0
496   71689468   0
496   71710268   0
496   71731068   0
496   71751868   0
496   71772668   0
496   71793468   0
496   71814268   0
496   71835068   0
495   71855868   0
495   71876668   0
495   71897468   0
496   71918268   0
496   71939068   0
496   71959868   0
495   71980668   0
496   72001468   0
495   72022268   0
495   72043068   0
495   72063868   0
494   72084668   0
494   72105468   0
495   72126268   0
492   72147068   0
495   72167868   0
493   72188668   0
495   72209468   0
495   72230268   0
495   72251068   0
497   72271868   0
495   72292668   0
494   72313468   0
495   72334268   0
495   72355068   0
494   72375868   0
496   72396668   0
493   72417468   0
496   72438268   0
495   72459068   0
496   72479868   0
495   72500668   0
496   72521468   0
496   72542268   0
496   72563068   0
496   72583868   0
497   72604668   0
497   72625468   0
497   72646268   0
497   72667068   0
497   72687868   0
496   72708668   0
497   72729468   0
497   72750268   0
499   72771068   0
499   72791868   0
500   72812668   0
499   72833468   0
499   72854268   0
501   72875068   0
498   72895868   0
499   72916668   0
500   72937468   0
499   72958268   0
498   72979068   0
499   72999868   0
499   73020668   0
498   73041468   0
500   73062268   0
499   73083068   0
499   73103868   0
499   73124668   0
498   73145468   0
500   73166268   0
498   73187068   0
498   73207868   0
499   73228668   0
497   73249468   0
496   73270268   0
498   73291068   0
497   73311868   0
497   73332668   0
497   73353468   0
496   73374268   0
497   73395068   0
496   73415868   0
497   73436668   0
496   73457468   0
497   73478268   0
496   73499068   0
496   73519868   0
496   73540668   0
496   73561468   0
497   73582268   0
495   73603068   0
495   73623868   0
496   73644668   0
496   73665468   0
496   73686268   0
495   73707068   0
495   73727868   0
495   73748668   0
495   73769468   0
496   73790268   0
495   73811068   0
496   73831868   0
494   73852668   0
496   73873468   0
496   73894268   0
496   73915068   0
495   73935868   0
495   73956668   0
496   73977468   0
496   73998268   0
496   74019068   0
496   74039868   0
496   74060668   0
497   74081468   0
496   74102268   0
496   74123068   0
496   74143868   0
497   74164668   0
496   74185468   0
496   74206268   0
496   74227068   0
497   74247868   0
496   74268668   0
496   74289468   0
497   74310268   0
496   74331068   0
496   74351868   0
492   74372668   0
496   74393468   0
496   74414268   0
496   74435068   0
495   74455868   0
496   74476668   0
497   74497468   0
496   74518268   0
496   74539068   0
496   74559868   0
496   74580668   0
496   74601468   0
496   74622268   0
497   74643068   0
496   74663868   0
495   74684668   0
495   74705468   0
496   74726268   0
495   74747068   0
495   74767868   0
494   74788668   0
495   74809468   0
495   74830268   0
494   74851068   0
494   74871868   0
494   74892668   0
494   74913468   0
494   74934268   0
493   74955068   0
494   74975868   0
494   74996668   0
495   75017468   0
495   75038268   0
495   75059068   0
496   75079868   0
495   75100668   0
494   75121468   0
495   75142268   0
495   75163068   0
495   75183868   0
495   75204668   0
496   75225468   0
496   75246268   0
496   75267068   0
496   75287868   0
496   75308668   0
496   75329468   0
496   75350268   0
497   75371068   0
496   75391868   0
496   75412668   0
496   75433468   0
497   75454268   0
497   75475068   0
497   75495868   0
497   75516668   0
497   75537468   0
497   75558268   0
496   75579068   0
496   75599868   0
496   75620668   0
496   75641468   0
497   75662268   0
497   75683068   0
496   75703868   0
497   75724668   0
497   75745468   0
500   75766268   0
497   75787068   0
499   75807868   0
499   75828668   0
499   75849468   0
496   75870268   0
497   75891068   0
497   75911868   0
499   75932668   0
498   75953468   0
496   75974268   0
499   75995068   0
497   76015868   0
498   76036668   0
496   76057468   0
495   76078268   0
494   76099068   0
496   76119868   0
496   76140668   0
496   76161468   0
494   76182268   0
495   76203068   0
495   76223868   0
492   76244668   0
496   76265468   0
497   76286268   0
512   76307068   0
513   76327868   0
493   76348668   0
498   76369468   0
494   76390268   0
480   76411068   0
488   76431868   0
486   76452668   0
488   76473468   0
496   76494268   0
472   76515068   0
495   76535868   0
488   76556668   0
480   76577468   0
492   76598268   0
487   76619068   0
486   76639868   0
501   76660668   0
508   76681468   0
484   76702268   0
489   76723068   0
477   76743868   0
483   76764668   0
477   76785468   0
486   76806268   0
478   76827068   0
487   76847868   0
476   76868668   0
489   76889468   0
483   76910268   0
496   76931068   0
500   76951868   0
492   76972668   0
496   76993468   0
487   77014268   0
486   77035068   0
484   77055868   0
487   77076668   0
491   77097468   0
489   77118268   0
487   77139068   0
486   77159868   0
491   77180668   0
488   77201468   0
486   77222268   0
487   77243068   0
497   77263868   0
486   77284668   0
490   77305468   0
491   77326268   0
487   77347068   0
486   77367868   0
484   77388668   0
487   77409468   0
488   77430268   0
491   77451068   0
487   77471868   0
492   77492668   0
497   77513468   0
498   77534268   0
494   77555068   0
496   77575868   0
496   77596668   0
499   77617468   0
496   77638268   0
496   77659068   0
498   77679868   0
499   77700668   0
498   77721468   0
498   77742268   0
498   77763068   0
504   77783868   0
498   77804668   0
500   77825468   0
503   77846268   0
499   77867068   0
500   77887868   0
500   77908668   0
503   77929468   0
493   77950268   0
492   77971068   0
500   77991868   0
504   78012668   0
502   78033468   0
499   78054268   0
502   78075068   0
501   78095868   0
508   78116668   0
502   78137468   0
503   78158268   0
507   78179068   0
503   78199868   0
499   78220668   0
505   78241468   0
505   78262268   0
504   78283068   0
504   78303868   0
504   78324668   0
505   78345468   0
504   78366268   0
504   78387068   0
504   78407868   0
504   78428668   0
503   78449468   0
502   78470268   0
501   78491068   0
504   78511868   0
500   78532668   0
499   78553468   0
497   78574268   0
497   78595068   0
496   78615868   0
499   78636668   0
495   78657468   0
497   78678268   0
496   78699068   0
496   78719868   0
497   78740668   0
496   78761468   0
494   78782268   0
497   78803068   0
498   78823868   0
498   78844668   0
497   78865468   0
494   78886268   0
496   78907068   0
495   78927868   0
495   78948668   0
495   78969468   0
494   78990268   0
494   79011068   0
495   79031868   0
495   79052668   0
496   79073468   0
495   79094268   0
496   79115068   0
496   79135868   0
496   79156668   0
496   79177468   0
496   79198268   0
496   79219068   0
496   79239868   0
495   79260668   0
496   79281468   0
496   79302268   0
495   79323068   0
496   79343868   0
495   79364668   0
495   79385468   0
495   79406268   0
494   79427068   0
496   79447868   0
495   79468668   0
494   79489468   0
494   79510268   0
495   79531068   0
494   79551868   0
494   79572668   0
494   79593468   0
494   79614268   0
493   79635068   0
496   79655868   0
495   79676668   0
495   79697468   0
495   79718268   0
495   79739068   0
495   79759868   0
495   79780668   0
495   79801468   0
494   79822268   0
495   79843068   0
495   79863868   0
495   79884668   0
495   79905468   0
494   79926268   0
494   79947068   0
494   79967868   0
495   79988668   0
494   80009468   0
495   80030268   0
494   80051068   0
494   80071868   0
494   80092668   0
493   80113468   0
495   80134268   0
495   80155068   0
495   80175868   0
494   80196668   0
496   80217468   0
496   80238268   0
495   80259068   0
496   80279868   0
496   80300668   0
496   80321468   0
496   80342268   0
496   80363068   0
496   80383868   0
496   80404668   0
497   80425468   0
497   80446268   0
496   80467068   0
496   80487868   0
496   80508668   0
496   80529468   0
496   80550268   0
496   80571068   0
496   80591868   0
495   80612668   0
496   80633468   0
496   80654268   0
496   80675068   0
496   80695868   0
496   80716668   0
496   80737468   0
496   80758268   0
496   80779068   0
496   80799868   0
496   80820668   0
496   80841468   0
496   80862268   0
497   80883068   0
496   80903868   0
497   80924668   0
495   80945468   0
496   80966268   0
497   80987068   0
496   81007868   0
496   81028668   0
496   81049468   0
496   81070268   0
496   81091068   0
497   81111868   0
496   81132668   0
496   81153468   0
496   81174268   0
496   81195068   0
496   81215868   0
496   81236668   0
496   81257468   0
496   81278268   0
496   81299068   0
496   81319868   0
495   81340668   0
496   81361468   0
496   81382268   0
495   81403068   0
496   81423868   0
496   81444668   0
496   81465468   0
496   81486268   0
496   81507068   0
496   81527868   0
496   81548668   0
496   81569468   0
496   81590268   0
495   81611068   0
496   81631868   0
496   81652668   0
496   81673468   0
496   81694268   0
496   81715068   0
496   81735868   0
496   81756668   0
496   81777468   0
496   81798268   0
495   81819068   0
496   81839868   0
496   81860668   0
497   81881468   0
496   81902268   0
497   81923068   0
496   81943868   0
496   81964668   0
497   81985468   0
496   82006268   0
496   82027068   0
496   82047868   0
497   82068668   0
496   82089468   0
498   82110268   0
496   82131068   0
496   82151868   0
496   82172668   0
496   82193468   0
497   82214268   0
496   82235068   0
497   82255868   0
497   82276668   0
496   82297468   0
497   82318268   0
496   82339068   0
496   82359868   0
497   82380668   0
496   82401468   0
497   82422268   0
496   82443068   0
496   82463868   0
496   82484668   0
496   82505468   0
493   82526268   0
496   82547068   0
495   82567868   0
496   82588668   0
496   82609468   0
496   82630268   0
497   82651068   0
492   82671868   0
496   82692668   0
496   82713468   0
495   82734268   0
496   105762988   0
496   105784828   0
496   105806668   0
496   105828508   0
496   105850348   0
496   105872188   0
496   105894028   0
495   105915868   0
493   105937708   0
494   105959548   0
494   105981388   0
495   106003228   0
495   106025068   0
494   106046908   0
496   106068748   0
496   106090588   0
496   106112428   0
496   106134268   0
496   106156108   0
496   106177948   0
496   106199788   0
494   106221628   0
496   106243468   0
496   106265308   0
496   106287148   0
496   106308988   0
497   106330828   0
496   106352668   0
497   106374508   0
496   106396348   0
497   106418192   0
496   106440028   0
496   106461868   0
496   106483708   0
496   106505548   0
497   106527388   0
494   106549228   0
496   106571068   0
496   106592908   0
497   106614748   0
496   106636588   0
492   106658428   0
497   106680268   0
496   106702108   0
500   106723948   0
496   106745788   0
499   106767628   0
500   106789468   0
503   106811308   0
499   106833148   0
499   106854988   0
502   106876828   0
499   106898668   0
499   106920508   0
504   106942348   0
501   106964188   0
503   106986028   0
497   107007868   0
499   107029708   0
497   107051548   0
496   107073388   0
495   107095228   0
501   107117068   0
496   107138908   0
495   107160748   0
495   107182588   0
495   107204428   0
495   107226268   0
495   107248108   0
495   107269948   0
495   107291788   0
495   107313628   0
493   107335468   0
494   107357308   0
495   107379148   0
495   107400988   0
494   107422828   0
494   107444668   0
494   107466508   0
495   107488348   0
496   107510188   0
495   107532028   0
495   107553868   0
495   107575708   0
494   107597548   0
494   107619388   0
494   107641228   0
494   107663068   0
494   107684908   0
494   107706748   0
495   107728588   0
494   107750428   0
494   107772268   0
493   107794108   0
494   107815952   0
494   107837788   0
494   107859628   0
494   107881468   0
495   107903308   0
494   107925148   0
494   107946988   0
495   107968828   0
495   107990668   0
495   108012508   0
493   108034348   0
496   108056188   0
495   108078028   0
496   108099868   0
496   108121708   0
495   108143548   0
496   108165388   0
496   108187228   0
496   108209068   0
495   108230908   0
496   108252748   0
495   108274588   0
496   108296428   0
496   108318268   0
496   108340108   0
496   108361948   0
497   108383788   0
496   108405628   0
496   108427468   0
496   108449308   0
496   108471148   0
497   108492988   0
497   108514828   0
496   108536668   0
496   108558508   0
497   108580348   0
499   108602188   0
499   108624028   0
499   108645868   0
497   108667708   0
499   108689548   0
499   108711388   0
497   108733228   0
499   108755068   0
498   108776908   0
499   108798748   0
497   108820588   0
498   108842428   0
497   108864268   0
496   108886108   0
496   108907948   0
496   108929788   0
496   108951628   0
496   108973468   0
496   108995308   0
496   109017148   0
496   109038988   0
495   109060828   0
495   109082668   0
495   109104508   0
496   109126348   0
496   109148188   0
496   109170028   0
496   109191868   0
496   109213712   0
497   109235548   0
497   109257388   0
497   109279228   0
497   109301068   0
498   109322908   0
498   109344748   0
499   109366588   0
497   109388428   0
499   109410268   0
499   109432108   0
497   109453948   0
499   109475788   0
498   109497628   0
499   109519468   0
499   109541308   0
499   109563148   0
499   109584988   0
499   109606828   0
498   109628668   0
498   109650508   0
497   109672348   0
497   109694188   0
497   109716028   0
497   109737868   0
497   109759708   0
497   109781548   0
496   109803388   0
497   109825228   0
497   109847068   0
497   109868908   0
497   109890748   0
497   109912588   0
497   109934428   0
497   109956268   0
496   109978108   0
497   109999948   0
496   110021788   0
496   110043628   0
496   110065468   0
497   110087308   0
498   110109148   0
495   110130988   0
496   110152828   0
496   110174668   0
495   110196508   0
498   110218348   0
497   110240188   0
497   110262028   0
499   110283868   0
498   110305708   0
498   110327548   0
499   110349388   0
499   110371228   0
499   110393068   0
499   110414908   0
499   110436748   0
499   110458588   0
498   110480428   0
497   110502268   0
498   110524108   0
497   110545948   0
497   110567788   0
497   110589628   0
498   110611472   0
498   110633308   0
496   110655148   0
496   110676988   0
496   110698828   0
497   110720668   0
496   110742508   0
495   110764348   0
496   110786188   0
496   110808028   0
498   110829868   0
496   110851708   0
495   110873548   0
495   110895388   0
495   110917228   0
494   110939068   0
495   110960908   0
494   110982748   0
494   111004588   0
496   111026428   0
495   111048268   0
496   111070108   0
495   111091948   0
494   111113788   0
495   111135628   0
494   111157468   0
494   111179308   0
495   111201148   0
495   111222988   0
495   111244828   0
495   111266668   0
492   111288508   0
495   111310348   0
495   111332188   0
496   111354028   0
496   111375868   0
495   111397708   0
494   111419548   0
496   111441388   0
496   111463228   0
496   111485068   0
496   111506908   0
496   111528748   0
496   111550588   0
496   111572428   0
496   111594268   0
496   111616108   0
496   111637948   0
496   111659788   0
496   111681628   0
496   111703468   0
496   111725308   0
497   111747148   0
496   111768988   0
497   111790828   0
496   111812668   0
496   111834508   0
496   111856348   0
495   111878188   0
496   111900028   0
496   111921868   0
496   111943708   0
496   111965548   0
496   111987388   0
496   112009232   0
495   112031068   0
495   112052908   0
495   112074748   0
495   112096588   0
496   112118428   0
495   112140268   0
495   112162108   0
496   112183948   0
495   112205788   0
496   112227628   0
496   112249468   0
496   112271308   0
496   112293148   0
496   112314988   0
497   112336828   0
496   112358668   0
496   112380508   0
495   112402348   0
493   112424188   0
495   112446028   0
496   112467868   0
497   112489708   0
497   112511548   0
496   112533388   0
496   112555228   0
496   112577068   0
495   112598908   0
496   112620748   0
498   112642588   0
496   112664428   0
495   112686268   0
494   112708108   0
493   112729948   0
494   112751788   0
494   112773628   0
494   112795468   0
495   112817308   0
496   112839148   0
495   112860988   0
495   112882828   0
495   112904668   0
494   112926508   0
493   112948348   0
494   112970188   0
492   112992028   0
494   113013868   0
492   113035708   0
494   113057548   0
494   113079388   0
494   113101228   0
494   113123068   0
493   113144908   0
492   113166748   0
495   113188588   0
492   113210428   0
493   113232268   0
494   113254108   0
499   113275948   0
496   113297788   0
502   113319628   0
497   113341468   0
494   113363308   0
499   113385148   0
497   113406992   0
496   113428828   0
499   113450668   0
504   113472508   0
500   113494348   0
503   113516188   0
504   113538028   0
504   113559868   0
506   113581708   0
507   113603548   0
507   113625388   0
508   113647228   0
504   113669068   0
513   113690908   0
509   113712748   0
511   113734588   0
509   113756428   0
513   113778268   0
512   113800108   0
513   113821948   0
515   113843788   0
510   113865628   0
515   113887468   0
524   113909308   0
515   113931148   0
517   113952988   0
519   113974828   0
516   113996668   0
519   114018508   0
519   114040348   0
514   114062188   0
520   114084028   0
516   114105868   0
516   114127708   0
515   114149548   0
516   114171388   0
511   114193228   0
507   114215068   0
511   114236908   0
510   114258748   0
509   114280588   0
513   114302428   0
509   114324268   0
512   114346108   0
509   114367948   0
508   114389788   0
508   114411628   0
508   114433468   0
509   114455308   0
507   114477148   0
507   114498988   0
505   114520828   0
504   114542668   0
505   114564508   0
505   114586348   0
504   114608188   0
503   114630028   0
502   114651868   0
500   114673708   0
500   114695548   0
501   114717388   0
502   114739228   0
498   114761068   0
498   114782908   0
499   114804752   0
496   114826588   0
496   114848428   0
495   114870268   0
491   114892108   0
493   114913948   0
492   114935788   0
492   114957628   0
491   114979468   0
491   115001308   0
490   115023148   0
490   115044988   0
491   115066828   0
488   115088668   0
487   115110508   0
487   115132348   0
487   115154188   0
487   115176028   0
483   115197868   0
480   115219708   0
483   115241548   0
481   115263388   0
481   115285228   0
482   115307068   0
482   115328908   0
483   115350748   0
484   115372588   0
481   115394428   0
481   115416268   0
483   115438108   0
487   115459948   0
483   115481788   0
484   115503628   0
487   115525468   0
487   115547308   0
487   115569148   0
486   115590988   0
487   115612828   0
486   115634668   0
484   115656508   0
487   115678348   0
482   115700188   0
485   115722028   0
483   115743868   0
483   115765708   0
484   115787548   0
485   115809388   0
483   115831228   0
484   115853068   0
483   115874908   0
487   115896748   0
483   115918588   0
486   115940428   0
484   115962268   0
484   115984108   0
486   116005948   0
487   116027788   0
485   116049628   0
484   116071468   0
486   116093308   0
491   116115148   0
487   116136988   0
488   116158828   0
487   116180668   0
485   116202512   0
489   116224348   0
487   116246188   0
489   116268028   0
489   116289868   0
487   116311708   0
487   116333548   0
489   116355388   0
492   116377228   0
489   116399068   0
487   116420908   0
491   116442748   0
491   116464588   0
488   116486428   0
492   116508268   0
492   116530108   0
492   116551948   0
492   116573788   0
492   116595628   0
494   116617468   0
492   116639308   0
493   116661148   0
493   116682988   0
495   116704828   0
495   116726668   0
494   116748508   0
494   116770348   0
495   116792188   0
496   116814028   0
495   116835868   0
495   116857708   0
496   116879548   0
496   116901388   0
496   116923228   0
496   116945068   0
496   116966908   0
497   116988748   0
496   117010588   0
497   117032428   0
496   117054268   0
496   117076108   0
496   117097948   0
496   117119788   0
496   117141628   0
496   117163468   0
497   117185308   0
497   117207148   0
497   117228988   0
497   117250828   0
497   117272668   0
497   117294508   0
497   117316348   0
497   117338188   0
497   117360028   0
498   117381868   0
497   117403708   0
497   117425548   0
497   117447388   0
497   117469228   0
497   117491068   0
497   117512908   0
498   117534748   0
497   117556588   0
497   117578428   0
498   117600272   0
496   117622108   0
497   117643948   0
497   117665788   0
498   117687628   0
497   117709468   0
497   117731308   0
497   117753148   0
496   117774988   0
497   117796828   0
497   117818668   0
499   117840508   0
496   117862348   0
497   117884188   0
496   117906028   0
496   117927868   0
496   117949708   0
496   117971548   0
496   117993388   0
496   118015228   0
496   118037068   0
495   118058908   0
496   118080748   0
496   118102588   0
496   118124428   0
496   118146268   0
496   118168108   0
496   118189948   0
496   118211788   0
496   118233628   0
496   118255468   0
496   118277308   0
497   118299148   0
496   118320988   0
496   118342828   0
491   118364668   0
496   118386508   0
491   118408348   0
492   118430188   0
494   118452028   0
492   118473868   0
493   118495708   0
496   118517548   0
494   118539388   0
494   118561228   0
492   118583068   0
491   118604908   0
494   118626748   0
491   118648588   0
489   118670428   0
491   118692268   0
489   118714108   0
493   118735948   0
487   118757788   0
489   118779628   0
489   118801468   0
491   118823308   0
489   118845148   0
489   118866988   0
485   118888828   0
485   118910668   0
488   118932508   0
489   118954348   0
491   118976188   0
489   118998032   0
487   119019868   0
487   119041708   0
489   119063548   0
487   119085388   0
489   119107228   0
491   119129068   0
493   119150908   0
496   119172748   0
493   119194588   0
495   119216428   0
496   119238268   0
495   119260108   0
495   119281948   0
494   119303788   0
496   119325628   0
494   119347468   0
497   119369308   0
489   119391148   0
496   119412988   0
494   119434828   0
495   119456668   0
494   119478508   0
495   119500348   0
496   119522188   0
495   119544028   0
496   119565868   0
494   119587708   0
496   119609548   0
495   119631388   0
494   119653228   0
493   119675068   0
495   119696908   0
496   119718748   0
494   119740588   0
496   119762428   0
496   119784268   0
495   119806108   0
497   119827948   0
496   119849788   0
496   119871628   0
494   119893468   0
494   119915308   0
497   119937148   0
497   119958988   0
499   119980828   0
498   120002668   0
499   120024508   0
499   120046348   0
500   120068188   0
499   120090028   0
499   120111868   0
499   120133708   0
497   120155548   0
499   120177388   0
499   120199228   0
498   120221068   0
499   120242908   0
496   120264748   0
499   120286588   0
497   120308428   0
498   120330268   0
498   120352108   0
498   120373948   0
497   120395792   0
497   120417628   0
494   120439468   0
496   120461308   0
495   120483148   0
497   120504988   0
495   120526828   0
492   120548668   0
496   120570508   0
499   120592348   0
497   120614188   0
496   120636028   0
499   120657868   0
496   120679708   0
499   120701548   0
499   120723388   0
499   120745228   0
499   120767068   0
499   120788908   0
499   120810748   0
499   120832588   0
500   120854428   0
497   120876268   0
500   120898108   0
503   120919948   0
501   120941788   0
499   120963628   0
496   120985468   0
496   121007308   0
496   121029148   0
505   121050988   0
496   121072828   0
497   121094668   0
494   121116508   0
492   121138348   0
486   121160188   0
489   121182028   0
489   121203868   0
498   121225708   0
490   121247548   0
491   121269388   0
489   121291228   0
492   121313068   0
489   121334908   0
491   121356748   0
489   121378588   0
492   121400428   0
491   121422268   0
493   121444108   0
493   121465948   0
494   121487788   0
494   121509628   0
493   121531468   0
494   121553308   0
492   121575148   0
495   121596988   0
493   121618828   0
494   121640668   0
494   121662508   0
496   121684348   0
495   121706188   0
496   121728028   0
497   121749868   0
495   121771708   0
492   121793552   0
500   121815388   0
494   121837228   0
495   121859068   0
495   121880908   0
496   121902748   0
496   121924588   0
496   121946428   0
495   121968268   0
496   121990108   0
497   122011948   0
497   122033788   0
496   122055628   0
497   122077468   0
496   122099308   0
496   122121148   0
496   122142988   0
498   122164828   0
495   122186668   0
495   122208508   0
496   122230348   0
496   122252188   0
497   122274028   0
496   122295868   0
494   122317708   0
494   122339548   0
492   122361388   0
494   122383228   0
494   122405068   0
493   122426908   0
494   122448748   0
492   122470588   0
492   122492428   0
491   122514268   0
492   122536108   0
492   122557948   0
493   122579788   0
494   122601628   0
492   122623468   0
493   122645308   0
492   122667148   0
492   122688988   0
493   122710828   0
493   122732668   0
493   122754508   0
493   122776348   0
493   122798188   0
492   122820028   0
493   122841868   0
494   122863708   0
495   122885548   0
493   122907388   0
494   122929228   0
494   122951068   0
494   122972908   0
493   122994748   0
494   123016588   0
492   123038428   0
492   123060268   0
494   123082108   0
492   123103948   0
493   123125788   0
493   123147628   0
493   123169468   0
492   123191312   0
492   123213148   0
494   123234988   0
494   123256828   0
494   123278668   0
496   123300508   0
495   123322348   0
496   123344188   0
497   123366028   0
497   123387868   0
497   123409708   0
498   123431548   0
496   123453388   0
497   123475228   0
497   123497068   0
497   123518908   0
499   123540748   0
497   123562588   0
497   123584428   0
497   123606268   0
497   123628108   0
498   123649948   0
496   123671788   0
497   123693628   0
496   123715468   0
496   123737308   0
496   123759148   0
496   123780988   0
497   123802828   0
496   123824668   0
496   123846508   0
496   123868348   0
496   123890188   0
496   123912028   0
495   123933868   0
496   123955708   0
495   123977548   0
494   123999388   0
494   124021228   0
491   124043068   0
490   124064908   0
495   124086748   0
492   124108588   0
494   124130428   0
496   124152268   0
496   124174108   0
494   124195948   0
496   124217788   0
496   124239628   0
496   124261468   0
496   124283308   0
496   124305148   0
499   124326988   0
496   124348828   0
497   124370668   0
495   124392508   0
496   124414348   0
496   124436188   0
496   124458028   0
494   124479868   0
495   124501708   0
492   124523548   0
491   124545388   0
482   124567228   0
481   124589072   0
483   124610908   0
481   124632748   0
480   124654588   0
481   124676428   0
481   124698268   0
479   124720108   0
479   124741948   0
475   124763788   0
480   124785628   0
475   124807468   0
475   124829308   0
473   124851148   0
477   124872988   0
472   124894828   0
478   124916668   0
480   124938508   0
478   124960348   0
476   124982188   0
472   125004028   0
473   125025868   0
471   125047708   0
471   125069548   0
472   125091388   0
472   125113228   0
470   125135068   0
467   125156908   0
470   125178748   0
465   125200588   0
465   125222428   0
465   125244268   0
467   125266108   0
468   125287948   0
465   125309788   0
463   125331628   0
459   125353468   0
459   125375308   0
453   125397148   0
462   125418988   0
465   125440828   0
463   125462668   0
461   125484508   0
462   125506348   0
463   125528188   0
465   125550028   0
460   125571868   0
467   125593708   0
466   125615548   0
467   125637388   0
469   125659228   0
472   125681068   0
470   125702908   0
470   125724748   0
472   125746588   0
470   125768428   0
473   125790268   0
472   125812108   0
475   125833948   0
475   125855788   0
477   125877628   0
479   125899468   0
478   125921308   0
479   125943148   0
482   125964988   0
483   125986832   0
481   126008668   0
482   126030508   0
484   126052348   0
484   126074188   0
484   126096028   0
484   126117868   0
487   126139708   0
485   126161548   0
487   126183388   0
488   126205228   0
487   126227068   0
485   126248908   0
488   126270748   0
491   126292588   0
491   126314428   0
492   126336268   0
492   126358108   0
492   126379948   0
494   126401788   0
492   126423628   0
493   126445468   0
494   126467308   0
492   126489148   0
494   126510988   0
494   126532828   0
493   126554668   0
494   126576508   0
496   126598348   0
495   126620188   0
497   126642028   0
496   126663868   0
499   126685708   0
497   126707548   0
497   126729388   0
497   126751228   0
497   126773068   0
499   126794908   0
499   126816748   0
498   126838588   0
499   126860428   0
499   126882268   0
498   126904108   0
499   126925948   0
498   126947788   0
499   126969628   0
499   126991468   0
499   127013308   0
499   127035148   0
498   127056988   0
497   127078828   0
497   127100668   0
499   127122508   0
497   127144348   0
497   127166188   0
496   127188028   0
499   127209868   0
497   127231708   0
499   127253548   0
499   127275388   0
499   127297228   0
502   127319068   0
503   127340908   0
502   127362748   0
502   127384592   0
505   127406428   0
502   127428268   0
502   127450108   0
502   127471948   0
502   127493788   0
503   127515628   0
503   127537468   0
504   127559308   0
504   127581148   0
507   127602988   0
504   127624828   0
504   127646668   0
504   127668508   0
504   127690348   0
504   127712188   0
504   127734028   0
503   127755868   0
504   127777708   0
503   127799548   0
504   127821388   0
504   127843228   0
503   127865068   0
504   127886908   0
502   127908748   0
503   127930588   0
502   127952428   0
502   127974268   0
504   127996108   0
502   128017948   0
502   128039788   0
500   128061628   0
504   128083468   1
506   128105308   1
504   128127148   1
504   128148988   1
504   128170828   1
503   128192668   1
503   128214508   1
504   128236348   1
502   128258188   1
502   128280028   1
501   128301868   1
499   128323708   1
500   128345548   1
499   128367388   1
499   128389228   1
497   128411068   1
498   128432908   1
497   128454748   1
497   128476588   1
496   128498428   1
498   128520268   1
495   128542108   1
496   128563948   1
494   128585788   1
494   128607628   1
496   128629468   1
496   128651308   1
496   128673148   1
492   128694988   1
492   128716828   1
497   128738668   1
494   128760508   1
496   128782352   1
492   128804188   1
492   128826028   1
492   128847868   1
491   128869708   1
489   128891548   1
492   128913388   1
489   128935228   1
491   128957068   1
491   128978908   1
489   129000748   1
489   129022588   1
492   129044428   1
492   129066268   1
492   129088108   1
494   129109948   1
494   129131788   1
495   129153628   1
496   129175468   1
494   129197308   1
492   129219148   1
496   129240988   1
493   129262828   1
493   129284668   1
494   129306508   1
495   129328348   1
499   129350188   1
496   129372028   1
499   129393868   1
494   129415708   1
492   129437548   1
496   129459388   1
484   129481228   1
491   129503068   1
491   129524908   1
491   129546748   1
487   129568588   1
483   129590428   1
489   129612268   1
484   129634108   1
483   129655948   1
479   129677788   1
480   129699628   1
478   129721468   1
478   129743308   1
480   129765148   1
477   129786988   1
476   129808828   1
480   129830668   1
481   129852508   1
480   129874348   1
479   129896188   1
480   129918028   1
480   129939868   1
481   129961708   1
483   129983548   1
481   130005388   1
481   130027228   1
480   130049068   1
480   130070908   1
479   130092748   1
480   130114588   1
478   130136428   1
480   130158268   1
480   130180112   1
478   130201948   1
478   130223788   1
480   130245628   1
476   130267468   1
479   130289308   1
479   130311148   1
481   130332988   1
481   130354828   1
483   130376668   1
485   130398508   1
479   130420348   0
481   130442188   0
482   130464028   0
483   130485868   0
484   130507708   0
483   130529548   0
484   130551388   0
484   130573228   0
485   130595068   0
485   130616908   0
483   130638748   0
485   130660588   0
486   130682428   0
484   130704268   0
484   130726108   0
487   130747948   0
486   130769788   0
484   130791628   0
486   130813468   0
485   130835308   0
487   130857148   0
486   130878988   0
485   130900828   0
486   130922668   0
485   130944508   0
487   130966348   0
487   130988188   0
487   131010028   0
486   131031868   0
487   131053708   0
487   131075548   0
486   131097388   0
487   131119228   0
487   131141068   0
487   131162908   0
487   131184748   0
487   131206588   0
487   131228428   0
489   131250268   0
487   131272108   0
487   131293948   0
488   131315788   0
489   131337628   0
488   131359468   0
487   131381308   0
487   131403148   0
487   131424988   0
488   131446828   0
487   131468668   0
487   131490508   0
487   131512348   0
487   131534188   0
487   131556028   0
487   131577872   0
487   131599708   0
487   131621548   0
487   131643388   0
487   131665228   0
487   131687068   0
487   131708908   0
487   131730748   0
487   131752588   0
489   131774428   0
488   131796268   0
487   131818108   0
489   131839948   0
488   131861788   0
487   131883628   0
489   131905468   0
489   131927308   0
489   131949148   0
489   131970988   0
489   131992828   0
489   132014668   0
490   132036508   0
491   132058348   0
491   132080188   0
492   132102028   0
492   132123868   0
492   132145708   0
492   132167548   0
492   132189388   0
492   132211228   0
494   132233068   0
495   132254908   0
496   132276748   0
494   132298588   0
495   132320428   0
496   132342268   0
496   132364108   0
496   132385948   0
496   132407788   0
495   132429628   0
495   132451468   0
496   132473308   0
496   132495148   0
496   132516988   0
496   132538828   0
496   132560668   0
499   132582508   0
497   132604348   0
497   132626188   0
497   132648028   0
497   132669868   0
498   132691708   0
497   132713548   0
497   132735388   0
497   132757228   0
497   132779068   0
497   132800908   0
497   132822748   0
498   132844588   0
498   132866428   0
498   132888268   0
499   132910108   0
498   132931948   0
499   132953788   0
497   132975632   0
498   132997468   0
498   133019308   0
498   133041148   0
499   133062988   0
500   133084828   0
500   133106668   0
502   133128508   0
503   133150348   0
504   133172188   0
504   133194028   0
505   133215868   0
506   133237708   0
506   133259548   0
507   133281388   0
505   133303228   0
506   133325068   0
504   133346908   0
507   133368748   0
508   133390588   0
506   133412428   0
510   133434268   0
507   133456108   0
505   133477948   0
508   133499788   0
506   133521628   0
506   133543468   0
505   133565308   0
505   133587148   0
504   133608988   0
504   133630828   0
504   133652668   0
504   133674508   0
504   133696348   0
504   133718188   0
504   133740028   0
503   133761868   0
502   133783708   0
504   133805548   0
503   133827388   0
502   133849228   0
503   133871068   0
503   133892908   0
504   133914748   0
508   133936588   1
507   133958428   1
507   133980268   1
505   134002108   1
504   134023948   1
502   134045788   1
499   134067628   1
498   134089468   1
500   134111308   1
497   134133148   1
497   134154988   1
497   134176828   1
497   134198668   1
497   134220508   1
494   134242348   1
495   134264188   1
496   134286028   1
496   134307868   1
504   134329708   1
501   134351548   1
499   134373392   1
500   134395228   1
500   134417068   1
499   134438908   1
500   134460748   1
496   134482588   1
496   134504428   1
494   134526268   1
494   134548108   1
494   134569948   1
495   134591788   1
493   134613628   1
495   134635468   1
493   134657308   1
491   134679148   1
487   134700988   1
484   134722828   1
481   134744668   1
480   134766508   1
481   134788348   1
484   134810188   1
490   134832028   1
492   134853868   1
495   134875708   1
497   134897548   1
499   134919388   1
501   134941228   1
500   134963068   1
500   134984908   1
504   135006748   1
503   135028588   1
504   135050428   1
507   135072268   1
505   135094108   1
504   135115948   1
504   135137788   1
503   135159628   1
503   135181468   1
504   135203308   1
504   135225148   1
505   135246988   1
502   135268828   1
508   135290668   1
504   135312508   1
507   135334348   1
503   135356188   1
504   135378028   1
504   135399868   1
501   135421708   1
504   135443548   1
500   135465388   1
502   135487228   1
498   135509068   1
504   135530908   1
499   135552748   1
504   135574588   1
503   135596428   1
500   135618268   1
502   135640108   1
502   135661948   1
502   135683788   1
504   135705628   1
501   135727468   1
504   135749308   0
496   135771152   0
497   135792988   0
499   135814828   0
499   135836668   0
499   135858508   0
499   135880348   0
503   135902188   0
503   135924028   0
499   135945868   0
504   135967708   0
502   135989548   0
503   136011388   0
504   136033228   0
504   136055068   0
502   136076908   0
502   136098748   0
502   136120588   0
503   136142428   0
504   136164268   0
504   136186108   0
504   136207948   0
504   136229788   0
503   136251628   0
504   136273468   0
503   136295308   0
504   136317148   0
504   136338988   0
504   136360828   0
502   136382668   0
504   136404508   0
504   136426348   0
504   136448188   0
504   136470028   0
504   136491868   0
502   136513708   0
502   136535548   0
503   136557388   0
501   136579228   0
502   136601068   0
502   136622908   0
500   136644748   0
500   136666588   0
499   136688428   0
499   136710268   0
500   136732108   0
499   136753948   0
500   136775788   0
500   136797628   0
500   136819468   0
500   136841308   0
502   136863148   0
501   136884988   0
500   136906828   0
500   136928668   0
500   136950508   0
499   136972348   0
499   136994188   0
498   137016028   0
497   137037868   0
496   137059708   0
495   137081548   0
493   137103388   0
492   137125228   0
491   137147068   0
490   137168912   0
489   137190748   0
489   137212588   0
487   137234428   0
487   137256268   0
486   137278108   0
486   137299948   0
486   137321788   0
484   137343628   0
484   137365468   0
483   137387308   0
484   137409148   0
481   137430988   0
481   137452828   0
481   137474668   0
480   137496508   0
480   137518348   0
479   137540188   0
480   137562028   0
480   137583868   0
479   137605708   0
480   137627548   0
480   137649388   0
480   137671228   0
481   137693068   0
481   137714908   0
482   137736748   0
483   137758588   0
484   137780428   0
485   137802268   0
487   137824108   0
487   137845948   0
487   137867788   0
488   137889628   0
489   137911468   0
489   137933308   0
491   137955148   0
494   137976988   0
491   137998828   0
492   138020668   0
491   138042508   0
492   138064348   0
492   138086188   0
492   138108028   0
492   138129868   0
491   138151708   0
492   138173548   0
492   138195388   0
492   138217228   0
491   138239068   0
491   138260908   0
491   138282748   0
487   138304588   0
491   138326428   0
490   138348268   0
491   138370108   0
491   138391948   0
489   138413788   0
491   138435628   0
490   138457468   0
489   138479308   0
492   138501148   0
490   138522988   0
491   138544828   0
492   138566672   0
492   138588508   0
492   138610348   0
494   138632188   0
495   138654028   0
495   138675868   0
495   138697708   0
495   138719548   0
497   138741388   0
499   138763228   0
499   138785068   0
499   138806908   0
500   138828748   0
500   138850588   0
501   138872428   0
502   138894268   0
502   138916108   0
502   138937948   0
503   138959788   0
503   138981628   0
504   139003468   0
505   139025308   0
504   139047148   0
504   139068988   0
504   139090828   0
504   139112668   0
504   139134508   0
504   139156348   0
504   139178188   0
504   139200028   0
504   139221868   0
505   139243708   0
505   139265548   0
506   139287388   0
507   139309228   0
506   139331068   0
507   139352908   0
507   139374748   0
508   139396588   0
505   139418428   0
504   139440268   0
504   139462108   0
504   139483948   0
503   139505788   0
502   139527628   0
502   139549468   0
500   139571308   0
499   139593148   0
501   139614988   0
499   139636828   0
499   139658668   0
499   139680508   0
497   139702348   0
497   139724188   0
497   139746028   0
496   139767868   0
496   139789708   0
497   139811548   0
498   139833388   0
498   139855228   0
496   139877068   0
499   139898908   0
499   139920748   0
500   139942588   0
499   139964432   0
499   139986268   0
499   140008108   0
499   140029948   0
498   140051788   0
498   140073628   0
498   140095468   0
498   140117308   0
497   140139148   0
496   140160988   0
496   140182828   0
496   140204668   0
496   140226508   0
496   140248348   0
496   140270188   0
496   140292028   0
495   140313868   0
496   140335708   0
496   140357548   0
496   140379388   0
495   140401228   0
496   140423068   0
495   140444908   0
496   140466748   0
495   140488588   0
495   140510428   0
496   140532268   0
496   140554108   0
495   140575948   0
496   140597788   0
496   140619628   0
494   140641468   0
495   140663308   0
495   140685148   0
495   140706988   0
495   140728828   0
494   140750668   0
492   140772508   0
495   140794348   0
496   140816188   0
495   140838028   0
495   140859868   0
496   140881708   0
495   140903548   0
496   140925388   0
496   140947228   0
496   140969068   0
497   140990908   0
496   141012748   0
497   141034588   0
496   141056428   0
499   141078268   0
495   141100108   0
495   141121948   0
497   141143788   0
496   141165628   0
497   141187468   0
499   141209308   0
498   141231148   0
497   141252988   0
497   141274828   0
496   141296668   0
498   141318508   0
487   141340348   0
492   141362192   0
491   141384028   0
481   141405868   0
491   141427708   0
452   141449548   0
459   141471388   0
452   141493228   0
441   141515068   0
432   141536908   0
447   141558748   0
423   141580588   0
413   141602428   0
423   141624268   0
417   141646108   0
428   141667948   0
421   141689788   0
413   141711628   0
421   141733468   0
417   141755308   0
409   141777148   0
411   141798988   0
391   141820828   0
408   141842668   0
409   141864508   0
408   141886348   0
402   141908188   0
401   141930028   0
398   141951868   0
403   141973708   0
391   141995548   0
398   142017388   0
393   142039228   0
398   142061068   0
401   142082908   0
408   142104748   0
409   142126588   0
414   142148428   0
423   142170268   0
436   142192108   0
451   142213948   0
472   142235788   0
489   142257628   0
512   142279468   0
516   142301308   0
523   142323148   0
524   142344988   0
525   142366828   0
526   142388668   0
528   142410508   0
527   142432348   0
528   142454188   0
530   142476028   0
529   142497868   0
528   142519708   0
529   142541548   0
525   142563388   0
527   142585228   0
527   142607068   0
527   142628908   0
527   142650748   0
528   142672588   0
530   142694428   0
531   142716268   0
534   142738108   0
534   142759952   0
535   142781788   0
537   142803628   0
533   142825468   0
539   142847308   0
535   142869148   0
535   142890988   0
536   142912828   0
533   142934668   0
535   142956508   0
535   142978348   0
535   143000188   0
534   143022028   0
533   143043868   0
533   143065708   0
532   143087548   0
531   143109388   0
531   143131228   0
531   143153068   0
531   143174908   0
529   143196748   0
529   143218588   0
531   143240428   0
525   143262268   0
527   143284108   0
525   143305948   0
526   143327788   0
527   143349628   0
524   143371468   0
526   143393308   0
523   143415148   0
524   143436988   0
523   143458828   0
522   143480668   0
519   143502508   0
520   143524348   0
519   143546188   0
519   143568028   0
519   143589868   0
519   143611708   0
518   143633548   0
516   143655388   0
515   143677228   0
516   143699068   0
518   143720908   0
519   143742748   0
515   143764588   0
515   143786428   0
514   143808268   0
514   143830108   0
511   143851948   0
512   143873788   0
513   143895628   0
514   143917468   0
512   143939308   0
512   143961148   0
511   143982988   0
510   144004828   0
510   144026668   0
508   144048508   0
507   144070348   0
507   144092188   0
505   144114028   0
505   144135868   0
502   144157712   0
500   144179548   0
504   144201388   0
504   144223228   0
505   144245068   0
504   144266908   0
506   144288748   0
506   144310588   0
508   144332428   0
507   144354268   0
507   144376108   0
507   144397948   0
507   144419788   0
506   144441628   0
506   144463468   0
506   144485308   0
505   144507148   0
505   144528988   0
505   144550828   0
505   144572668   0
505   144594508   0
505   144616348   0
505   144638188   0
504   144660028   0
505   144681868   0
504   144703708   0
504   144725548   0
504   144747388   0
504   144769228   0
505   144791068   0
504   144812908   0
502   144834748   0
502   144856588   0
502   144878428   0
503   144900268   0
502   144922108   0
502   144943948   0
503   144965788   0
501   144987628   0
502   145009468   0
499   145031308   0
502   145053148   0
501   145074988   0
500   145096828   0
500   145118668   0
499   145140508   0
500   145162348   0
500   145184188   0
500   145206028   0
500   145227868   0
502   145249708   0
499   145271548   0
499   145293388   0
501   145315228   0
499   145337068   0
499   145358908   0
499   145380748   0
500   145402588   0
499   145424428   0
499   145446268   0
499   145468108   0
498   145489948   0
500   145511788   0
500   145533628   0
499   145555472   0
498   145577308   0
497   145599148   0
499   145620988   0
498   145642828   0
499   145664668   0
499   145686508   0
500   145708348   0
499   145730188   0
499   145752028   0
499   145773868   0
499   145795708   0
499   145817548   0
501   145839388   0
499   145861228   0
499   145883068   0
499   145904908   0
499   145926748   0
499   145948588   0
498   145970428   0
499   145992268   0
499   146014108   0
499   146035948   0
499   146057788   0
499   146079628   0
499   146101468   0
500   146123308   0
499   146145148   0
502   146166988   0
499   146188828   0
500   146210668   0
500   146232508   0
500   146254348   0
500   146276188   0
500   146298028   0
499   146319868   0
500   146341708   0
501   146363548   0
500   146385388   0
501   146407228   0
502   146429068   0
499   146450908   0
499   146472748   0
499   146494588   0
502   146516428   0
500   146538268   0
499   146560108   0
499   146581948   0
499   146603788   0
499   146625628   0
499   146647468   0
500   146669308   0
498   146691148   0
498   146712988   0
499   146734828   0
498   146756668   0
500   146778508   0
494   146800348   0
491   146822188   0
484   146844028   0
495   146865868   0
494   146887708   1
507   146909548   1
510   146931388   1
505   146953232   1
481   146975068   1
462   146996908   1
459   147018748   1
433   147040588   1
433   147062428   1
430   147084268   1
413   147106108   1
395   147127948   1
396   147149788   1
395   147171628   1
388   147193468   1
385   147215308   1
374   147237148   1
378   147258988   1
380   147280828   1
372   147302668   1
368   147324508   1
370   147346348   1
376   147368188   1
361   147390028   1
369   147411868   1
369   147433708   1
368   147455548   1
377   147477388   1
375   147499228   1
380   147521068   1
380   147542908   1
387   147564748   1
380   147586588   1
384   147608428   1
387   147630268   1
385   147652108   1
390   147673948   1
393   147695788   1
395   147717628   1
399   147739468   1
399   147761308   1
399   147783148   1
404   147804988   1
410   147826828   1
408   147848668   1
408   147870508   1
408   147892348   1
413   147914188   1
412   147936028   1
416   147957868   1
417   147979708   1
419   148001548   1
421   148023388   1
423   148045228   1
427   148067068   1
428   148088908   1
432   148110748   1
435   148132588   1
439   148154428   1
445   148176268   1
455   148198108   1
455   148219948   1
459   148241788   1
466   148263628   1
471   148285468   1
473   148307308   1
480   148329148   1
482   148350992   1
484   148372828   1
487   148394668   1
492   148416508   1
496   148438348   1
499   148460188   1
505   148482028   1
508   148503868   1
514   148525708   1
519   148547548   1
522   148569388   1
529   148591228   0
524   148613068   0
531   148634908   0
535   148656748   0
540   148678588   0
542   148700428   0
547   148722268   0
551   148744108   0
553   148765948   0
562   148787788   0
573   148809628   0
574   148831468   0
575   148853308   0
574   148875148   0
572   148896988   0
572   148918828   0
572   148940668   0
572   148962508   0
572   148984348   0
570   149006188   0
569   149028028   0
568   149049868   0
568   149071708   0
564   149093548   0
564   149115388   0
563   149137228   0
561   149159068   0
559   149180908   0
558   149202748   0
556   149224588   0
555   149246428   0
553   149268268   0
551   149290108   0
551   149311948   0
550   149333788   0
549   149355628   0
548   149377468   0
547   149399308   0
547   149421148   0
544   149442988   0
545   149464828   0
544   149486668   0
544   149508508   0
543   149530348   0
543   149552188   0
543   149574028   0
543   149595868   0
542   149617708   0
542   149639548   0
543   149661388   0
540   149683228   0
540   149705068   0
538   149726908   0
538   149748752   0
537   149770588   0
536   149792428   0
536   149814268   0
536   149836108   0
535   149857948   0
534   149879788   0
534   149901628   0
532   149923468   0
532   149945308   0
531   149967148   0
530   149988988   0
529   150010828   0
528   150032668   0
527   150054508   0
528   150076348   0
527   150098188   0
527   150120028   0
527   150141868   0
525   150163708   0
524   150185548   0
523   150207388   0
523   150229228   0
523   150251068   0
521   150272908   0
521   150294748   0
520   150316588   0
519   150338428   0
519   150360268   0
519   150382108   0
519   150403948   0
519   150425788   0
518   150447628   0
519   150469468   0
516   150491308   0
518   150513148   0
516   150534988   0
516   150556828   0
515   150578668   0
515   150600508   0
515   150622348   0
515   150644188   0
513   150666028   0
512   150687868   0
513   150709708   0
511   150731548   0
511   150753388   0
511   150775228   0
511   150797068   0
511   150818908   0
512   150840748   0
510   150862588   0
510   150884428   0
511   150906268   0
511   150928108   0
512   150949948   0
510   150971788   0
511   150993628   0
510   151015468   0
510   151037308   0
511   151059148   0
510   151080988   0
509   151102828   0
510   151124668   0
509   151146512   0
510   151168348   0
509   151190188   0
509   151212028   0
510   151233868   0
508   151255708   0
508   151277548   0
509   151299388   0
509   151321228   0
509   151343068   0
509   151364908   0
510   151386748   0
508   151408588   0
508   151430428   0