EMGValue   Timestamp   TrueFlexState
499   9545504   0
499   9547120   0
499   9548736   0
499   9550348   0
499   9551964   0
498   9553580   0
499   9555196   0
499   9556808   0
499   9558424   0
499   9560040   0
499   9561656   0
499   9563268   0
499   9564884   0
500   9566500   0
499   9568116   0
499   9569728   0
499   9571344   0
499   9572960   0
499   9574576   0
498   9576188   0
500   9577804   0
499   9579420   0
499   9581036   0
499   9582648   0
499   9584264   0
499   9585880   0
497   9587496   0
498   9589108   0
499   9590724   0
499   9592340   0
499   9593956   0
500   9595568   0
499   9597184   0
499   9598800   0
499   9600416   0
499   9602028   0
499   9603644   0
498   9605260   0
499   9606876   0
500   9608488   0
499   9610104   0
499   9611720   0
499   9613336   0
499   9614948   0
499   9616564   0
499   9618180   0
499   9619796   0
499   9621408   0
499   9623024   0
499   9624640   0
499   9626256   0
499   9627868   0
499   9629484   0
499   9631100   0
499   9632716   0
499   9634328   0
499   9635944   0
499   9637560   0
499   9639176   0
499   9640788   0
499   9642404   0
499   9644020   0
499   9645636   0
500   9647248   0
499   9648864   0
499   9650480   0
499   9652096   0
499   9653708   0
499   9655324   0
499   9656940   0
499   9658556   0
499   9660168   0
499   9661784   0
499   9663400   0
498   9665016   0
500   9666628   0
500   9668244   0
498   9669860   0
499   9671476   0
499   9673088   0
499   9674704   0
499   9676320   0
499   9677936   0
499   9679548   0
499   9681164   0
500   9682780   0
499   9684396   0
499   9686008   0
501   9687624   0
500   9689240   0
501   9690856   0
499   9692468   0
499   9694084   0
499   9695700   0
499   9697316   0
499   9698928   0
499   9700544   0
499   9702160   0
499   9703776   0
499   9705388   0
501   9707004   0
499   9708620   0
498   9710236   0
499   9711848   0
499   9713464   0
499   9715080   0
499   9716696   0
499   9718308   0
497   9719924   0
499   9721540   0
499   9723156   0
498   9724768   0
499   9726384   0
499   9728004   0
499   9729616   0
499   9731228   0
498   9732844   0
500   9734460   0
499   9736076   0
499   9737688   0
499   9739304   0
498   9740920   0
499   9742536   0
499   9744148   0
499   9745764   0
499   9747380   0
499   9748996   0
499   9750608   0
499   9752224   0
499   9753840   0
499   9755456   0
499   9757068   0
498   9758684   0
499   9760300   0
499   9761916   0
498   9763528   0
499   9765144   0
499   9766760   0
498   9768376   0
499   9769996   0
499   9771604   0
497   9773220   0
498   9774836   0
499   9776448   0
499   9778064   0
500   9779680   0
499   9781296   0
500   9782908   0
499   9784524   0
499   9786140   0
499   9787756   0
499   9789368   0
499   9790984   0
499   9792600   0
498   9794216   0
499   9795828   0
499   9797444   0
498   9799060   0
499   9800676   0
499   9802288   0
499   9803904   0
498   9805520   0
499   9807136   0
499   9808748   0
499   9810364   0
499   9811984   0
499   9813596   0
499   9815208   0
499   9816824   0
499   9818440   0
499   9820056   0
498   9821668   0
499   9823284   0
499   9824900   0
499   9826516   0
499   9828128   0
499   9829744   0
499   9831360   0
500   9832976   0
499   9834588   0
500   9836204   0
499   9837820   0
500   9839436   0
498   9841048   0
499   9842664   0
499   9844280   0
499   9845896   0
498   9847508   0
499   9849124   0
499   9850740   0
499   9852356   0
499   9853968   0
499   9855584   0
499   9857200   0
499   9858816   0
499   9860428   0
499   9862044   0
499   9863660   0
497   9865276   0
499   9866888   0
499   9868504   0
499   9870120   0
499   9871736   0
499   9873348   0
499   9874964   0
499   9876580   0
497   9878196   0
500   9879808   0
499   9881424   0
499   9883040   0
499   9884656   0
499   9886268   0
499   9887884   0
499   9889500   0
499   9891116   0
499   9892728   0
499   9894344   0
499   9895960   0
500   9897576   0
499   9899188   0
499   9900804   0
499   9902420   0
499   9904036   0
500   9905648   0
499   9907264   0
499   9908880   0
499   9910496   0
500   9912108   0
499   9913724   0
499   9915340   0
499   9916956   0
499   9918568   0
499   9920184   0
499   9921800   0
499   9923416   0
499   9925028   0
499   9926644   0
499   9928260   0
499   9929876   0
502   9931488   0
499   9933104   0
499   9934720   0
499   9936336   0
500   9937948   0
499   9939564   0
499   9941180   0
499   9942796   0
499   9944408   0
499   9946024   0
500   9947640   0
499   9949256   0
500   9950868   0
499   9952484   0
500   9954100   0
499   9955716   0
499   9957328   0
499   9958944   0
499   9960560   0
499   9962176   0
499   9963788   0
499   9965404   0
499   9967020   0
500   9968636   0
499   9970248   0
499   9971864   0
499   9973480   0
499   9975096   0
499   9976708   0
500   9978324   0
500   9979940   0
499   9981556   0
499   9983168   0
500   9984784   0
500   9986400   0
500   9988016   0
499   9989628   0
499   9991244   0
499   9992860   0
499   9994476   0
499   9996088   0
499   9997704   0
499   9999320   0
499   10000936   0
499   10002636   0
500   10004336   0
499   10006036   0
499   10007736   0
499   10009436   0
499   10011136   0
499   10012836   0
499   10014536   0
499   10016236   0
499   10017936   0
499   10019636   0
499   10021336   0
499   10023036   0
499   10024736   0
499   10026436   0
499   10028136   0
499   10029836   0
499   10031536   0
499   10033236   0
499   10034936   0
499   10036636   0
499   10038336   0
499   10040036   0
499   10041736   0
499   10043436   0
499   10045136   0
500   10046836   0
499   10048536   0
499   10050236   0
499   10051936   0
499   10053640   0
499   10055336   0
499   10057036   0
499   10058736   0
498   10060436   0
499   10062136   0
499   10063836   0
499   10065536   0
499   10067236   0
499   10068936   0
499   10070636   0
499   10072336   0
499   10074036   0
499   10075736   0
498   10077436   0
499   10079136   0
498   10080836   0
499   10082536   0
499   10084236   0
498   10085936   0
500   10087636   0
499   10089336   0
499   10091036   0
499   10092736   0
499   10094436   0
499   10096136   0
499   10097836   0
499   10099536   0
499   10101236   0
498   10102936   0
499   10104636   0
499   10106336   0
498   10108036   0
499   10109736   0
499   10111436   0
499   10113136   0
502   10114836   0
498   10116536   0
498   10118236   0
499   10119936   0
499   10121636   0
499   10123336   0
499   10125036   0
498   10126736   0
499   10128436   0
499   10130136   0
498   10131836   0
499   10133536   0
499   10135236   0
499   10136936   0
499   10138640   0
499   10140336   0
499   10142036   0
499   10143736   0
499   10145436   0
499   10147136   0
499   10148836   0
499   10150536   0
499   10152236   0
497   10153936   0
499   10155636   0
499   10157336   0
497   10159036   0
499   10160736   0
499   10162436   0
499   10164136   0
498   10165836   0
499   10167536   0
499   10169236   0
497   10170936   0
498   10172636   0
498   10174336   0
499   10176036   0
498   10177736   0
498   10179436   0
498   10181136   0
499   10182836   0
499   10184536   0
498   10186236   0
497   10187936   0
498   10189636   0
499   10191336   0
497   10193036   0
497   10194736   0
499   10196436   0
499   10198136   0
499   10199836   0
499   10201536   0
497   10203236   0
497   10204936   0
499   10206636   0
497   10208336   0
497   10210036   0
497   10211736   0
499   10213436   0
499   10215136   0
502   10216836   0
501   10218536   0
501   10220236   0
500   10221936   0
500   10223636   0
496   10225336   0
494   10227036   0
496   10228736   0
496   10230436   0
496   10232136   0
497   10233836   0
497   10235536   0
497   10237236   0
497   10238936   0
497   10240636   0
499   10242336   0
498   10244036   0
498   10245736   0
498   10247436   0
499   10249136   0
499   10250836   0
499   10252536   0
500   10254236   0
499   10255936   0
498   10257636   0
499   10259336   0
498   10261036   0
497   10262736   0
498   10264436   0
499   10266136   0
499   10267836   0
499   10269536   0
499   10271236   0
499   10272936   0
498   10274636   0
498   10276336   0
497   10278036   0
499   10279736   0
499   10281436   0
499   10283136   0
499   10284836   0
500   10286536   0
500   10288236   0
496   10289936   0
499   10291636   0
499   10293336   0
499   10295036   0
499   10296736   0
497   10298436   0
497   10300136   0
498   10301836   0
499   10303536   0
499   10305236   0
499   10306936   0
499   10308636   0
498   10310336   0
497   10312036   0
497   10313740   0
499   10315436   0
499   10317136   0
499   10318836   0
500   10320536   0
499   10322236   0
499   10323936   0
499   10325636   0
499   10327336   0
500   10329036   0
499   10330736   0
499   10332436   0
500   10334136   0
502   10335836   0
500   10337536   0
500   10339236   0
499   10340936   0
498   10342636   0
499   10344336   0
497   10346036   0
496   10347736   0
497   10349436   0
497   10351136   0
498   10352836   0
499   10354536   0
500   10356236   0
499   10357936   0
500   10359636   0
497   10361336   0
496   10363036   0
496   10364736   0
496   10366436   0
497   10368136   0
498   10369836   0
497   10371536   0
496   10373236   0
496   10374936   0
498   10376636   0
497   10378336   0
497   10380036   0
497   10381736   0
498   10383436   0
498   10385136   0
497   10386836   0
497   10388536   0
497   10390236   0
496   10391936   0
497   10393636   0
497   10395336   0
497   10397036   0
499   10398736   0
497   10400436   0
498   10402136   0
496   10403836   0
497   10405536   0
497   10407236   0
497   10408936   0
497   10410636   0
498   10412336   0
496   10414036   0
496   10415736   0
497   10417436   0
497   10419136   0
496   10420836   0
497   10422536   0
496   10424236   0
496   10425936   0
497   10427636   0
497   10429336   0
497   10431036   0
496   10432736   0
498   10434436   0
497   10436136   0
497   10437836   0
497   10439536   0
496   10441236   0
496   10442936   0
496   10444636   0
498   10446336   0
496   10448036   0
496   10449736   0
497   10451436   0
496   10453136   0
496   10454836   0
497   10456536   0
496   10458236   0
496   10459936   0
496   10461636   0
496   10463336   0
497   10465036   0
496   10466736   0
496   10468436   0
495   10470136   0
497   10471836   0
496   10473536   0
496   10475236   0
496   10476936   0
496   10478636   0
496   10480336   0
496   10482036   0
496   10483736   0
495   10485436   0
496   10487136   0
496   10488840   0
495   10490536   0
495   10492236   0
496   10493936   0
496   10495636   0
495   10497336   0
496   10499036   0
496   10500736   0
496   10502436   0
497   10504136   0
496   10505836   0
495   10507536   0
496   10509236   0
495   10510936   0
496   10512636   0
496   10514336   0
496   10516036   0
496   10517736   0
495   10519436   0
495   10521136   0
495   10522836   0
497   10524536   0
495   10526236   0
495   10527936   0
496   10529636   0
496   10531336   0
495   10533036   0
495   10534736   0
495   10536436   0
495   10538136   0
496   10539836   0
495   10541536   0
494   10543236   0
494   10544936   0
496   10546636   0
496   10548336   0
496   10550036   0
495   10551736   0
494   10553436   0
494   10555136   0
494   10556836   0
495   10558536   0
495   10560236   0
494   10561936   0
492   10563636   0
492   10565336   0
493   10567036   0
494   10568736   0
493   10570436   0
493   10572136   0
493   10573840   0
493   10575536   0
492   10577236   0
491   21105336   0
491   21107036   0
491   21108736   0
491   21110436   0
491   21112136   0
492   21113836   0
492   21115536   0
492   21117236   0
491   21118936   0
491   21120636   0
492   21122336   0
489   21124036   0
491   21125736   0
491   21127436   0
491   21129136   0
492   21130836   0
492   21132536   0
492   21134236   0
492   21135936   0
492   21137636   0
491   21139336   0
492   21141036   0
492   21142736   0
492   21144436   0
492   21146136   0
492   21147836   0
492   21149536   0
492   21151236   0
492   21152936   0
493   21154636   0
492   21156336   0
494   21158036   0
492   21159736   0
491   21161436   0
492   21163136   0
492   21164836   0
493   21166536   0
492   21168236   0
492   21169936   0
494   21171636   0
492   21173336   0
492   21175036   0
492   21176736   0
493   21178436   0
492   21180136   0
492   21181836   0
492   21183536   0
493   21185236   0
492   21186936   0
492   21188636   0
493   21190336   0
492   21192036   0
493   21193740   0
492   21195436   0
492   21197136   0
493   21198836   0
492   21200536   0
492   21202236   0
493   21203936   0
492   21205636   0
494   21207336   0
493   21209036   0
495   21210736   0
493   21212436   0
494   21214136   0
493   21215836   0
492   21217536   0
494   21219236   0
494   21220936   0
495   21222636   0
494   21224336   0
493   21226036   0
494   21227736   0
492   21229436   0
494   21231136   0
495   21232836   0
495   21234536   0
495   21236236   0
495   21237936   0
495   21239636   0
495   21241336   0
494   21243036   0
494   21244736   0
495   21246436   0
495   21248136   0
494   21249836   0
495   21251536   0
495   21253236   0
496   21254936   0
495   21256636   0
495   21258336   0
495   21260036   0
496   21261736   0
495   21263436   0
496   21265136   0
496   21266836   0
495   21268536   0
496   21270236   0
495   21271936   0
495   21273636   0
496   21275336   0
495   21277036   0
495   21278736   0
496   21280436   0
496   21282136   0
494   21283836   0
495   21285536   0
496   21287236   0
496   21288936   0
496   21290636   0
495   21292336   0
496   21294036   0
496   21295736   0
496   21297436   0
496   21299136   0
495   21300836   0
496   21302536   0
496   21304236   0
496   21305936   0
498   21307636   0
496   21309336   0
497   21311036   0
496   21312736   0
499   21314436   0
496   21316136   0
497   21317836   0
497   21319536   0
496   21321236   0
496   21322936   0
497   21324636   0
497   21326336   0
496   21328036   0
496   21329736   0
497   21331436   0
496   21333136   0
496   21334836   0
496   21336536   0
496   21338236   0
497   21339936   0
496   21341636   0
497   21343336   0
497   21345036   0
498   21346736   0
496   21348436   0
496   21350136   0
496   21351836   0
496   21353536   0
496   21355236   0
496   21356936   0
497   21358636   0
497   21360336   0
496   21362036   0
496   21363736   0
496   21365436   0
496   21367136   0
497   21368840   0
497   21370536   0
496   21372236   0
496   21373936   0
496   21375636   0
497   21377336   0
497   21379036   0
497   21380736   0
496   21382436   0
496   21384136   0
497   21385836   0
497   21387536   0
497   21389236   0
498   21390936   0
497   21392636   0
498   21394336   0
498   21396036   0
497   21397736   0
497   21399436   0
496   21401136   0
498   21402836   0
497   21404536   0
499   21406236   0
496   21407936   0
497   21409636   0
497   21411336   0
497   21413036   0
498   21414736   0
499   21416436   0
499   21418136   0
497   21419836   0
498   21421536   0
499   21423236   0
499   21424936   0
497   21426636   0
497   21428336   0
497   21430036   0
497   21431736   0
497   21433436   0
498   21435136   0
498   21436836   0
497   21438536   0
497   21440236   0
497   21441936   0
498   21443636   0
497   21445336   0
497   21447036   0
497   21448736   0
497   21450436   0
497   21452136   0
497   21453840   0
499   21455536   0
497   21457236   0
497   21458936   0
496   21460636   0
498   21462336   0
499   21464036   0
498   21465736   0
499   21467436   0
497   21469136   0
498   21470836   0
496   21472536   0
498   21474236   0
498   21475936   0
497   21477636   0
497   21479336   0
498   21481036   0
498   21482736   0
497   21484436   0
497   21486136   0
497   21487836   0
495   21489536   0
497   21491236   0
497   21492936   0
498   21494636   0
498   21496336   0
498   21498036   0
498   21499736   0
497   21501436   0
498   21503136   0
497   21504836   0
499   21506536   0
498   21508236   0
499   21509936   0
499   21511636   0
498   21513336   0
499   21515036   0
499   21516736   0
499   21518436   0
498   21520136   0
499   21521836   0
498   21523536   0
499   21525236   0
497   21526936   0
498   21528636   0
498   21530336   0
498   21532036   0
498   21533736   0
499   21535436   0
499   21537136   0
499   21538836   0
499   21540536   0
498   21542236   0
498   21543936   0
499   21545636   0
499   21547336   0
499   21549036   0
499   21550736   0
499   21552436   0
499   21554136   0
500   21555836   0
499   21557536   0
499   21559236   0
499   21560936   0
499   21562636   0
500   21564336   0
499   21566036   0
499   21567736   0
499   21569436   0
499   21571136   0
499   21572836   0
499   21574536   0
497   21576236   0
497   21577936   0
499   21579636   0
497   21581336   0
498   21583036   0
497   21584736   0
497   21586436   0
497   21588136   0
497   21589836   0
497   21591536   0
497   21593236   0
497   21594936   0
496   21596636   0
496   21598336   0
496   21600036   0
496   21601736   0
496   21603436   0
495   21605136   0
495   21606836   0
497   21608536   0
496   21610236   0
496   21611936   0
494   21613636   0
496   21615336   0
495   21617036   0
496   21618736   0
495   21620436   0
495   21622136   0
495   21623836   0
495   21625536   0
494   21627236   0
493   21628940   0
494   21630636   0
494   21632336   0
493   21634036   0
494   21635736   0
494   21637436   0
494   21639136   0
494   21640836   0
494   21642536   0
493   21644236   0
494   21645936   0
494   21647636   0
493   21649336   0
494   21651036   0
493   21652736   0
493   21654436   0
494   21656136   0
494   21657836   0
494   21659536   0
493   21661236   0
494   21662936   0
493   21664636   0
494   21666336   0
494   21668036   0
493   21669736   0
494   21671436   0
494   21673136   0
494   21674836   0
493   21676536   0
493   21678236   0
494   21679936   0
493   21681636   0
493   21683336   0
493   21685036   0
494   21686736   0
494   21688436   0
495   21690136   0
494   21691836   0
494   21693536   0
494   21695236   0
493   21696936   0
493   21698636   0
495   21700336   0
494   21702036   0
493   21703736   0
493   21705436   0
494   21707136   0
493   21708836   0
494   21710536   0
494   21712236   0
494   21713936   0
495   21715636   0
493   21717336   0
494   21719036   0
494   21720736   0
495   21722436   0
494   21724136   0
494   21725836   0
494   21727536   0
493   21729236   0
492   21730936   0
492   21732636   0
492   21734336   0
493   21736036   0
494   21737736   0
491   21739436   0
494   21741136   0
494   21742836   0
494   21744536   0
494   21746236   0
493   21747936   0
493   21749636   0
492   21751336   0
493   21753036   0
494   21754736   0
494   21756436   0
492   21758136   0
492   21759836   0
492   21761536   0
494   21763236   0
494   21764936   0
495   21766636   0
494   21768336   0
494   21770036   0
493   21771736   0
493   21773436   0
493   21775136   0
494   21776836   0
492   21778536   0
493   21780236   0
493   21781936   0
492   21783636   0
494   21785336   0
493   21787036   0
492   21788736   0
492   21790436   0
492   21792136   0
491   21793836   0
492   21795536   0
492   21797236   0
492   21798936   0
494   21800636   0
492   21802336   0
492   21804040   0
492   21805736   0
492   21807436   0
493   21809136   0
492   21810836   0
492   21812536   0
492   21814236   0
492   21815936   0
492   21817636   0
492   21819336   0
491   21821036   0
492   21822736   0
492   21824436   0
492   21826136   0
492   21827836   0
492   21829536   0
491   21831236   0
492   21832936   0
492   21834636   0
492   21836336   0
492   21838036   0
491   21839736   0
492   21841436   0
492   21843136   0
492   21844836   0
492   21846536   0
492   21848236   0
491   21849936   0
491   21851636   0
491   21853336   0
491   21855036   0
492   21856736   0
491   21858436   0
491   21860136   0
492   21861836   0
491   21863536   0
492   21865236   0
495   21866936   0
491   21868636   0
492   21870336   0
490   21872036   0
490   21873736   0
492   21875436   0
491   21877136   0
491   21878836   0
489   21880536   0
491   21882236   0
489   21883936   0
489   21885636   0
490   21887336   0
488   21889040   0
489   21890736   0
490   21892436   0
489   21894136   0
489   21895836   0
487   21897536   0
489   21899236   0
489   21900936   0
488   21902636   0
488   21904336   0
488   21906036   0
489   21907736   0
488   21909436   0
488   21911136   0
489   21912836   0
487   21914536   0
489   21916236   0
488   21917936   0
490   21919636   0
491   21921336   0
491   21923036   0
491   21924736   0
490   21926436   0
490   21928136   0
489   21929836   0
490   21931536   0
491   21933236   0
489   21934936   0
491   21936636   0
490   21938336   0
491   21940036   0
490   21941736   0
492   21943436   0
491   21945136   0
492   21946836   0
491   21948536   0
489   21950236   0
489   21951936   0
490   21953636   0
490   21955336   0
489   21957036   0
491   21958736   0
490   21960436   0
491   21962136   0
489   21963836   0
489   21965536   0
490   21967236   0
491   21968936   0
491   21970636   0
491   21972336   0
491   21974036   0
491   21975736   0
491   21977436   0
491   21979136   0
490   21980836   0
491   21982536   0
489   21984236   0
488   21985936   0
487   21987636   0
487   21989336   0
489   21991036   0
488   21992736   0
488   21994436   0
488   21996136   0
489   21997836   0
489   21999536   0
488   22001236   0
488   22002936   0
487   22004636   0
489   22006336   0
487   22008036   0
487   22009736   0
488   22011436   0
489   22013136   0
489   22014836   0
488   22016536   0
487   22018236   0
487   22019936   0
487   22021636   0
488   22023336   0
487   22025036   0
489   22026736   0
487   22028436   0
487   22030136   0
488   22031836   0
488   22033536   0
490   22035236   0
487   22036936   0
487   22038636   0
487   22040336   0
489   22042036   0
487   22043736   0
487   22045436   0
487   22047136   0
488   22048836   0
488   22050536   0
487   22052236   0
487   22053936   0
487   22055636   0
487   22057336   0
487   22059036   0
487   22060736   0
487   22062436   0
487   22064140   0
487   22065836   0
487   22067536   0
487   22069236   0
487   22070936   0
487   22072636   0
487   22074336   0
488   22076036   0
487   22077736   0
487   22079436   0
489   22081136   0
487   22082836   0
487   22084536   0
487   22086236   0
487   22087936   0
487   22089636   0
487   22091336   0
487   22093036   0
487   22094736   0
486   22096436   0
489   22098136   0
487   22099836   0
486   22101536   0
487   22103236   0
487   22104936   0
487   22106636   0
487   22108336   0
487   22110036   0
487   22111736   0
487   22113436   0
487   22115136   0
487   22116836   0
487   22118536   0
487   22120236   0
487   22121936   0
487   22123636   0
486   22125336   0
487   22127036   0
487   22128736   0
487   22130436   0
487   22132136   0
486   22133836   0
487   22135536   0
487   22137236   0
487   22138936   0
487   22140636   0
487   22142336   0
487   22144036   0
487   22145736   0
487   22147436   0
487   22149136   0
488   22150836   0
487   22152536   0
487   22154236   0
487   22155936   0
487   22157636   0
487   22159336   0
487   22161036   0
487   22162736   0
487   22164436   0
489   22166136   0
487   22167836   0
488   22169536   0
487   22171236   0
488   22172936   0
487   22174636   0
488   22176336   0
487   22178036   0
488   22179736   0
487   22181436   0
487   22183136   0
487   22184836   0
489   22186536   0
487   22188236   0
489   22189936   0
487   22191636   0
488   22193336   0
487   22195036   0
489   22196736   0
487   22198436   0
488   22200136   0
487   22201836   0
488   22203536   0
487   22205236   0
488   22206936   0
488   22208636   0
488   22210336   0
487   22212036   0
489   22213736   0
489   22215436   0
487   22217136   0
488   22218836   0
488   22220536   0
487   22222236   0
487   22223936   0
489   22225636   0
487   22227336   0
487   22229036   0
489   22230736   0
489   22232436   0
489   22234136   0
489   22235836   0
489   22237536   0
487   22239240   0
488   22240936   0
487   22242636   0
487   22244336   0
488   22246036   0
491   22247736   0
487   22249436   0
487   22251136   0
487   22252836   0
488   22254536   0
489   22256236   0
489   22257936   0
488   22259636   0
488   22261336   0
488   22263036   0
489   22264736   0
489   22266436   0
489   22268136   0
489   22269836   0
487   22271536   0
489   22273236   0
489   22274936   0
487   22276636   0
487   22278336   0
487   22280036   0
488   22281736   0
489   22283436   0
488   22285136   0
487   22286836   0
488   22288536   0
488   22290236   0
487   22291936   0
487   22293636   0
487   22295336   0
487   22297036   0
488   22298736   0
488   22300436   0
489   22302136   0
487   22303836   0
488   22305536   0
487   22307236   0
487   22308936   0
487   22310636   0
487   22312336   0
488   22314036   0
487   22315736   0
487   22317436   0
488   22319136   0
488   22320836   0
487   22322536   0
487   22324240   0
487   22325936   0
488   22327636   0
487   22329336   0
488   22331036   0
487   22332736   0
487   22334436   0
487   22336136   0
487   22337836   0
487   22339536   0
488   22341236   0
487   22342936   0
487   22344636   0
487   22346336   0
487   22348036   0
488   22349736   0
487   22351436   0
487   22353136   0
488   22354836   0
487   22356536   0
488   22358236   0
487   22359936   0
487   22361636   0
487   22363336   0
487   22365036   0
487   22366736   0
487   22368436   0
488   22370136   0
488   22371836   0
487   22373536   0
489   22375236   0
487   22376936   0
487   22378636   0
487   22380336   0
487   22382036   0
489   22383736   0
487   22385436   0
487   22387136   0
487   22388836   0
487   22390536   0
487   22392236   0
487   22393936   0
487   22395636   0
487   22397336   0
487   22399036   0
487   22400736   0
487   22402436   0
487   22404136   0
487   22405836   0
487   22407536   0
487   22409236   0
487   22410936   0
487   22412636   0
487   22414336   0
487   22416036   0
487   22417736   0
487   22419436   0
487   22421136   0
487   22422836   0
487   22424536   0
487   22426236   0
487   22427936   0
487   22429636   0
487   22431336   0
487   22433036   0
487   22434736   0
487   22436436   0
487   22438136   0
487   22439836   0
487   22441536   0
487   22443236   0
487   22444936   0
487   22446636   0
487   22448336   0
487   22450036   0
486   22451736   0
487   22453436   0
487   22455136   0
487   22456836   0
487   22458536   0
487   22460236   0
487   22461936   0
487   22463636   0
487   22465336   0
489   22467036   0
487   22468736   0
486   22470436   0
487   22472136   0
487   22473836   0
488   22475536   0
487   22477236   0
487   22478936   0
487   22480636   0
487   22482336   0
487   22484036   0
487   22485736   0
487   22487436   0
487   22489136   0
487   22490836   0
487   22492536   0
487   22494236   0
487   22495936   0
487   22497636   0
487   22499340   0
487   22501036   0
487   22502736   0
487   22504436   0
487   22506136   0
487   22507836   0
487   22509536   0
487   22511236   0
487   22512936   0
487   22514636   0
487   22516336   0
487   22518036   0
487   22519736   0
487   22521436   0
487   22523136   0
487   22524836   0
487   22526536   0
487   22528236   0
487   22529936   0
487   22531636   0
487   22533336   0
487   22535036   0
487   22536736   0
487   22538436   0
488   22540136   0
487   22541836   0
487   22543536   0
487   22545236   0
487   22546936   0
487   22548636   0
489   22550336   0
487   22552036   0
487   22553736   0
488   22555436   0
487   22557136   0
487   22558836   0
489   22560536   0
489   22562236   0
488   22563936   0
488   22565636   0
489   22567336   0
488   22569036   0
489   22570736   0
489   22572436   0
489   22574136   0
489   22575836   0
489   22577536   0
490   22579236   0
489   22580936   0
489   22582636   0
491   22584336   0
489   22586036   0
489   22587736   0
490   22589436   0
491   22591136   0
491   22592836   0
491   22594536   0
490   22596236   0
491   22597936   0
490   22599636   0
491   22601336   0
490   22603036   0
490   22604736   0
489   22606436   0
491   22608136   0
490   22609836   0
491   22611536   0
489   22613236   0
491   22614936   0
491   22616636   0
491   22618336   0
491   22620036   0
491   22621736   0
492   22623436   0
489   22625136   0
491   22626836   0
491   22628536   0
492   22630236   0
491   22631936   0
492   22633636   0
492   22635336   0
492   22637036   0
492   22638736   0
492   22640436   0
493   22642136   0
493   22643836   0
494   22645536   0
492   22647236   0
492   22648936   0
493   22650636   0
492   22652336   0
494   22654036   0
492   22655736   0
493   22657436   0
492   22659136   0
494   22660836   0
494   22662536   0
493   22664236   0
493   22665936   0
493   22667636   0
492   22669336   0
493   22671036   0
494   22672736   0
493   22674440   0
494   22676136   0
494   22677836   0
495   22679536   0
495   22681236   0
494   22682936   0
494   22684636   0
495   22686336   0
493   22688036   0
494   22689736   0
494   22691436   0
494   22693136   0
495   22694836   0
494   22696536   0
495   22698236   0
495   22699936   0
495   22701636   0
495   22703336   0
495   22705036   0
496   22706736   0
496   22708436   0
495   22710136   0
496   22711836   0
495   22713536   0
496   22715236   0
495   22716936   0
495   22718636   0
494   22720336   0
494   22722036   0
496   22723736   0
495   22725436   0
495   22727136   0
495   22728836   0
494   22730536   0
494   22732236   0
494   22733936   0
496   22735636   0
495   22737336   0
495   22739036   0
495   22740736   0
496   22742436   0
495   22744136   0
496   22745836   0
496   22747536   0
496   22749236   0
496   22750936   0
496   22752636   0
497   22754336   0
496   22756036   0
496   22757736   0
497   22759440   0
496   22761136   0
496   22762836   0
496   22764536   0
497   22766236   0
496   22767936   0
497   22769636   0
496   22771336   0
496   22773036   0
497   22774736   0
496   22776436   0
497   22778136   0
497   22779836   0
497   22781536   0
497   22783236   0
496   22784936   0
497   22786636   0
497   22788336   0
497   22790036   0
497   22791736   0
497   22793436   0
497   22795136   0
497   22796836   0
499   22798536   0
497   22800236   0
497   22801936   0
497   22803636   0
498   22805336   0
497   22807036   0
497   22808736   0
497   22810436   0
497   22812136   0
498   22813836   0
497   22815536   0
497   22817236   0
497   22818936   0
497   22820636   0
499   22822336   0
496   22824036   0
498   22825736   0
499   22827436   0
497   22829136   0
497   22830836   0
497   22832536   0
499   22834236   0
496   22835936   0
498   22837636   0
498   22839336   0
497   22841036   0
499   22842736   0
498   22844436   0
497   22846136   0
497   22847836   0
497   22849536   0
497   22851236   0
498   22852936   0
499   22854636   0
497   22856336   0
497   22858036   0
498   22859736   0
497   22861436   0
496   22863136   0
494   22864836   0
497   22866536   0
497   22868236   0
498   22869936   0
497   22871636   0
497   22873336   0
497   22875036   0
497   22876736   0
497   22878436   0
497   22880136   0
497   22881836   0
497   22883536   0
497   22885236   0
497   22886936   0
497   22888636   0
497   22890336   0
497   22892036   0
497   22893736   0
498   22895436   0
497   22897136   0
497   22898836   0
495   22900536   0
497   22902236   0
496   22903936   0
496   22905636   0
496   22907336   0
497   22909036   0
497   22910736   0
497   22912436   0
496   22914136   0
497   22915836   0
497   22917536   0
497   22919236   0
496   22920936   0
497   22922636   0
496   22924336   0
497   22926036   0
497   22927736   0
497   22929436   0
496   22931136   0
496   22932836   0
496   22934540   0
496   22936236   0
496   22937936   0
496   22939636   0
497   22941336   0
496   22943036   0
496   22944736   0
496   22946436   0
497   22948136   0
496   22949836   0
496   22951536   0
496   22953236   0
496   22954936   0
497   22956636   0
496   22958336   0
497   22960036   0
496   22961736   0
496   22963436   0
496   22965136   0
496   22966836   0
496   22968536   0
496   22970236   0
496   22971936   0
497   22973636   0
497   22975336   0
497   22977036   0
496   22978736   0
496   22980436   0
497   22982136   0
497   22983836   0
497   22985536   0
497   22987236   0
497   22988936   0
497   22990636   0
497   22992336   0
497   22994036   0
497   22995736   0
497   22997436   0
497   22999136   0
497   23000836   0
497   23002536   0
497   23004236   0
498   23005936   0
497   23007636   0
497   23009336   0
497   23011036   0
497   23012736   0
497   23014436   0
497   23016136   0
497   23017836   0
498   23019536   0
497   23021236   0
497   23022936   0
496   23024636   0
497   23026336   0
500   23028036   0
499   23029736   0
502   23031436   0
498   23033136   0
499   23034836   0
499   23036536   0
499   23038236   0
501   23039936   0
499   23041636   0
500   23043336   0
499   23045036   0
499   23046736   0
499   23048436   0
499   23050136   0
500   23051836   0
499   23053536   0
499   23055236   0
500   23056936   0
500   23058636   0
499   23060336   0
500   23062036   0
500   23063736   0
500   23065436   0
500   23067136   0
501   23068836   0
500   23070536   0
500   23072236   0
501   23073936   0
502   23075636   0
500   23077336   0
501   23079036   0
501   23080736   0
501   23082436   0
499   23084136   0
500   23085836   0
500   23087536   0
501   23089236   0
501   23090936   0
502   23092636   0
501   23094336   0
501   23096036   0
501   23097736   0
501   23099436   0
502   23101136   0
502   23102836   0
501   23104536   0
501   23106236   0
501   23107936   0
500   23109640   0
500   23111336   0
501   23113036   0
501   23114736   0
500   23116436   0
501   23118136   0
502   23119836   0
501   23121536   0
501   23123236   0
502   23124936   0
502   23126636   0
500   23128336   0
501   23130036   0
500   23131736   0
501   23133436   0
502   23135136   0
502   23136836   0
501   23138536   0
502   23140236   0
502   23141936   0
502   23143636   0
501   23145336   0
500   23147036   0
500   23148736   0
502   23150436   0
502   23152136   0
502   23153836   0
501   23155536   0
502   23157236   0
499   23158936   0
502   23160636   0
502   23162336   0
501   23164036   0
502   23165736   0
502   23167436   0
502   23169136   0
502   23170836   0
502   23172536   0
502   23174236   0
502   23175936   0
502   23177636   0
500   23179336   0
502   23181036   0
500   23182736   0
503   23184436   0
502   23186136   0
500   23187836   0
502   23189536   0
501   23191236   0
501   23192936   0
502   23194640   0
501   23196336   0
502   23198036   0
502   23199736   0
502   23201436   0
502   23203136   0
500   23204836   0
501   23206536   0
501   23208236   0
502   23209936   0
502   23211636   0
500   23213336   0
502   23215036   0
500   23216736   0
501   23218436   0
501   23220136   0
502   23221836   0
502   23223536   0
501   23225236   0
500   23226936   0
501   23228636   0
501   23230336   0
500   23232036   0
502   23233736   0
500   23235436   0
501   23237136   0
500   23238836   0
502   23240536   0
501   23242236   0
501   23243936   0
500   23245636   0
500   23247336   0
502   23249036   0
502   23250736   0
501   23252436   0
500   23254136   0
500   23255836   0
501   23257536   0
501   23259236   0
501   23260936   0
500   23262636   0
500   23264336   0
501   23266036   0
502   23267736   0
501   23269436   0
501   23271136   0
500   23272836   0
501   23274536   0
500   23276236   0
500   23277936   0
500   23279636   0
500   23281336   0
499   23283036   0
500   23284740   0
500   23286436   0
501   23288136   0
500   23289836   0
500   23291536   0
501   23293236   0
500   23294936   0
500   23296636   0
501   23298336   0
500   23300036   0
501   23301736   0
500   23303436   0
502   23305136   0
502   23306836   0
501   23308536   0
500   23310236   0
500   23311936   0
500   23313636   0
501   23315336   0
501   23317036   0
500   23318736   0
499   23320436   0
500   23322136   0
500   23323836   0
501   23325536   0
500   23327236   0
500   23328936   0
500   23330636   0
500   23332336   0
502   23334036   0
501   23335736   0
501   23337436   0
502   23339136   0
500   23340836   0
501   23342536   0
500   23344236   0
500   23345936   0
500   23347636   0
500   23349336   0
500   23351036   0
500   23352736   0
500   23354436   0
499   23356136   0
499   23357836   0
500   23359536   0
499   23361236   0
500   23362936   0
500   23364636   0
500   23366336   0
500   23368036   0
500   23369740   0
500   23371436   0
501   23373136   0
500   23374836   0
500   23376536   0
500   23378236   0
500   23379936   0
502   23381636   0
500   23383336   0
499   23385036   0
501   23386736   0
499   23388436   0
502   23390136   0
499   23391836   0
500   23393536   0
500   23395236   0
499   23396936   0
500   23398636   0
499   23400336   0
500   23402036   0
500   23403736   0
502   23405436   0
500   23407136   0
500   23408836   0
500   23410536   0
499   23412236   0
500   23413936   0
499   23415636   0
499   23417336   0
499   23419036   0
500   23420736   0
501   23422436   0
500   23424136   0
501   23425836   0
500   23427536   0
500   23429236   0
501   23430936   0
499   23432636   0
500   23434336   0
500   23436036   0
500   23437736   0
499   23439436   0
502   23441136   0
499   23442836   0
500   23444536   0
501   23446236   0
501   23447936   0
500   23449636   0
501   23451336   0
502   23453036   0
500   23454736   0
502   23456436   0
501   23458136   0
500   23459836   0
501   23461536   0
500   23463236   0
502   23464936   0
502   23466636   0
503   23468336   0
501   23470036   0
503   23471736   0
501   23473436   0
502   23475136   0
502   23476836   0
503   23478536   0
503   23480236   0
504   23481936   0
502   23483636   0
502   23485336   0
503   23487036   0
503   23488736   0
504   23490436   0
504   23492136   0
503   23493836   0
502   23495536   0
504   23497236   0
504   23498936   0
504   23500636   0
504   23502336   0
504   23504036   0
504   23505736   0
504   23507436   0
504   23509136   0
504   23510836   0
504   23512536   0
504   23514236   0
504   23515936   0
504   23517636   0
504   23519336   0
504   23521036   0
504   23522736   0
504   23524436   0
504   23526136   0
504   23527836   0
505   23529536   0
504   23531236   0
505   23532936   0
504   23534636   0
504   23536336   0
504   23538036   0
505   23539736   0
505   23541436   0
505   23543136   0
505   23544840   0
505   23546536   0
505   23548236   0
506   23549936   0
504   23551636   0
505   23553336   0
506   23555036   0
504   23556736   0
505   23558436   0
505   23560136   0
505   23561836   0
506   23563536   0
506   23565236   0
505   23566936   0
505   23568636   0
505   23570336   0
505   23572036   0
506   23573736   0
505   23575436   0
505   23577136   0
505   23578836   0
505   23580536   0
505   23582236   0
505   23583936   0
505   23585636   0
506   23587336   0
506   23589036   0
506   23590736   0
508   23592436   0
506   23594136   0
505   23595836   0
505   23597536   0
505   23599236   0
505   23600936   0
505   23602636   0
505   23604336   0
505   23606036   0
506   23607736   0
506   23609436   0
506   23611136   0
505   23612836   0
507   23614536   0
505   23616236   0
507   23617936   0
505   23619636   0
505   23621336   0
505   23623036   0
505   23624736   0
505   23626436   0
505   23628136   0
505   23629840   0
505   23631536   0
505   23633236   0
506   23634936   0
505   23636636   0
505   23638336   0
504   23640036   0
505   23641736   0
504   23643436   0
505   23645136   0
505   23646836   0
504   23648536   0
505   23650236   0
504   23651936   0
506   23653636   0
504   23655336   0
505   23657036   0
505   23658736   0
505   23660436   0
504   23662136   0
504   23663836   0
504   23665536   0
504   23667236   0
504   23668936   0
504   23670636   0
504   23672336   0
504   23674036   0
508   23675736   0
504   23677436   0
504   23679136   0
504   23680836   0
504   23682536   0
504   23684236   0
504   23685936   0
504   23687636   0
504   23689336   0
504   23691036   0
504   23692736   0
504   23694436   0
504   23696136   0
504   23697836   0
504   23699536   0
504   23701236   0
504   23702936   0
504   23704636   0
504   23706336   0
504   23708036   0
504   23709736   0
504   23711436   0
504   23713136   0
504   23714836   0
504   23716536   0
504   23718236   0
504   23719936   0
504   23721636   0
504   23723336   0
504   23725036   0
504   23726736   0
504   23728436   0
504   23730136   0
504   23731836   0
504   23733536   0
504   23735236   0
504   23736936   0
504   23738636   0
504   23740336   0
504   23742036   0
503   23743736   0
504   23745436   0
504   23747136   0
503   23748836   0
504   23750536   0
504   23752236   0
504   23753936   0
503   23755636   0
503   23757336   0
503   23759036   0
503   23760736   0
504   23762436   0
504   23764136   0
504   23765836   0
504   23767536   0
504   23769236   0
504   23770936   0
504   23772636   0
503   23774336   0
504   23776036   0
504   23777736   0
503   23779436   0
503   23781136   0
504   23782836   0
503   23784536   0
504   23786236   0
504   23787936   0
504   23789636   0
503   23791336   0
504   23793036   0
503   23794736   0
503   23796436   0
504   23798136   0
503   23799836   0
503   23801536   0
503   23803236   0
503   23804940   0
504   23806636   0
503   23808336   0
504   23810036   0
503   23811736   0
504   23813436   0
504   23815136   0
503   23816836   0
504   23818536   0
504   23820236   0
504   23821936   0
505   23823636   0
504   23825336   0
502   23827036   0
503   23828736   0
503   23830436   0
502   23832136   0
503   23833836   0
502   23835536   0
504   23837236   0
503   23838936   0
503   23840636   0
503   23842336   0
503   23844036   0
503   23845736   0
503   23847436   0
503   23849136   0
502   23850836   0
503   23852536   0
503   23854236   0
503   23855936   0
503   23857636   0
503   23859336   0
503   23861036   0
503   23862736   0
502   23864436   0
502   23866136   0
503   23867836   0
503   23869536   0
503   23871236   0
503   23872936   0
502   23874636   0
502   23876336   0
503   23878036   0
503   23879736   0
502   23881436   0
502   23883136   0
503   23884836   0
502   23886536   0
502   23888236   0
503   23889936   0
502   23891636   0
503   23893336   0
503   23895036   0
502   23896736   0
502   23898436   0
503   23900136   0
503   23901836   0
503   23903536   0
503   23905236   0
502   23906936   0
502   23908636   0
502   23910336   0
502   23912036   0
502   23913736   0
503   23915436   0
503   23917136   0
502   23918836   0
503   23920536   0
503   23922236   0
502   23923936   0
502   23925636   0
502   23927336   0
503   23929036   0
502   23930736   0
503   23932436   0
502   23934136   0
502   23935836   0
502   23937536   0
502   23939236   0
503   23940936   0
502   23942636   0
502   23944336   0
502   23946036   0
502   23947736   0
502   23949436   0
501   23951136   0
502   23952836   0
503   23954536   0
502   23956236   0
501   23957936   0
503   23959636   0
502   23961336   0
502   23963036   0
502   23964736   0
502   23966436   0
502   23968136   0
501   23969836   0
502   23971536   0
500   23973236   0
502   23974936   0
503   23976636   0
502   23978336   0
501   23980040   0
501   23981736   0
502   23983436   0
502   23985136   0
501   23986836   0
500   23988536   0
504   23990236   0
502   23991936   0
502   23993636   0
500   23995336   0
502   23997036   0
501   23998736   0
501   24000436   0
502   24002136   0
501   24003836   0
502   24005536   0
501   24007236   0
502   24008936   0
502   24010636   0
501   24012336   0
502   24014036   0
502   24015736   0
502   24017436   0
502   24019136   0
502   24020836   0
502   24022536   0
501   24024236   0
500   24025936   0
501   24027636   0
501   24029336   0
502   24031036   0
502   24032736   0
502   24034436   0
500   24036136   0
501   24037836   0
501   24039536   0
502   24041236   0
502   24042936   0
500   24044636   0
502   24046336   0
501   24048036   0
501   24049736   0
501   24051436   0
500   24053136   0
500   24054836   0
501   24056536   0
500   24058236   0
500   24059936   0
502   24061636   0
500   24063336   0
502   24065040   0
501   24066736   0
500   24068436   0
500   24070136   0
501   24071836   0
502   24073536   0
502   24075236   0
502   24076936   0
501   24078636   0
502   24080336   0
502   24082036   0
502   24083736   0
501   24085436   0
501   24087136   0
501   24088836   0
502   24090536   0
501   24092236   0
501   24093936   0
501   24095636   0
503   24097336   0
501   24099036   0
501   24100736   0
502   24102436   0
500   24104136   0
500   24105836   0
500   24107536   0
497   24109236   0
500   24110936   0
501   24112636   0
501   24114336   0
502   24116036   0
500   24117736   0
500   24119436   0
502   24121136   0
502   24122836   0
500   24124536   0
501   24126236   0
502   24127936   0
501   24129636   0
500   24131336   0
501   24133036   0
502   24134736   0
500   24136436   0
502   24138136   0
501   24139836   0
500   24141536   0
501   24143236   0
501   24144936   0
501   24146636   0
501   24148336   0
502   24150036   0
500   24151736   0
502   24153436   0
501   24155140   0
502   24156836   0
501   24158536   0
501   24160236   0
502   24161936   0
501   24163636   0
502   24165336   0
500   24167036   0
501   24168736   0
501   24170436   0
501   24172136   0
501   24173836   0
501   24175536   0
501   24177236   0
500   24178936   0
501   24180636   0
500   24182336   0
500   24184036   0
500   24185736   0
501   24187436   0
501   24189136   0
501   24190836   0
500   24192536   0
501   24194236   0
500   24195936   0
500   24197636   0
500   24199336   0
500   24201036   0
500   24202736   0
500   24204436   0
500   24206136   0
500   24207836   0
500   24209536   0
499   24211236   0
499   24212936   0
499   24214636   0
500   24216336   0
500   24218036   0
499   24219736   0
500   24221436   0
499   24223136   0
499   24224836   0
500   24226536   0
500   24228236   0
500   24229936   0
504   24231636   0
499   24233336   0
500   24235036   0
499   24236736   0
499   24238436   0
499   24240140   0
500   24241836   0
499   24243536   0
499   24245236   0
499   24246936   0
499   24248636   0
499   24250336   0
499   24252036   0
499   24253736   0
499   24255436   0
499   24257136   0
499   24258836   0
499   24260536   0
499   24262236   0
499   24263936   0
499   24265636   0
499   24267336   0
499   24269036   0
499   24270736   0
499   24272436   0
499   24274136   0
498   24275836   0
499   24277536   0
499   24279236   0
499   24280936   0
499   24282636   0
499   24284336   0
499   24286036   0
499   24287736   0
499   24289436   0
498   24291136   0
499   24292836   0
500   24294536   0
499   24296236   0
499   24297936   0
498   24299636   0
499   24301336   0
499   24303036   0
498   24304736   0
498   24306436   0
499   24308136   0
498   24309836   0
499   24311536   0
499   24313236   0
499   24314936   0
499   24316636   0
499   24318336   0
499   24320036   0
499   24321736   0
498   24323436   0
498   24325136   0
499   24326836   0
499   24328536   0
499   24330236   0
498   24331936   0
499   24333636   0
497   24335336   0
499   24337036   0
498   24338736   0
497   24340436   0
499   24342136   0
498   24343836   0
498   24345536   0
498   24347236   0
498   24348936   0
499   24350636   0
499   24352336   0
498   24354036   0
497   24355736   0
499   24357436   0
497   24359136   0
498   24360836   0
498   24362536   0
497   24364236   0
497   24365936   0
499   24367636   0
498   24369336   0
497   24371036   0
497   24372736   0
499   24374436   0
497   24376136   0
497   24377836   0
497   24379536   0
498   24381236   0
498   24382936   0
497   24384636   0
497   24386336   0
498   24388036   0
497   24389736   0
497   24391436   0
497   24393136   0
498   24394836   0
497   24396536   0
497   24398236   0
497   24399936   0
497   24401636   0
498   24403336   0
498   24405036   0
498   24406736   0
498   24408436   0
497   24410136   0
497   24411836   0
497   24413536   0
497   24415240   0
497   24416936   0
499   24418636   0
497   24420336   0
497   24422036   0
499   24423736   0
498   24425436   0
498   24427136   0
498   24428836   0
497   24430536   0
498   24432236   0
497   24433936   0
497   24435636   0
498   24437336   0
497   24439036   0
497   24440736   0
497   24442436   0
497   24444136   0
497   24445836   0
497   24447536   0
496   24449236   0
494   24450936   0
497   24452636   0
497   24454336   0
497   24456036   0
497   24457736   0
497   24459436   0
496   24461136   0
497   24462836   0
497   24464536   0
497   24466236   0
497   24467936   0
496   24469636   0
497   24471336   0
497   24473036   0
498   24474736   0
497   24476436   0
497   24478136   0
497   24479836   0
497   24481536   0
497   24483236   0
497   24484936   0
497   24486636   0
496   24488336   0
496   24490036   0
497   24491736   0
497   24493436   0
497   24495136   0
496   24496836   0
497   24498536   0
497   24500240   0
497   24501936   0
497   24503636   0
497   24505336   0
496   24507036   0
497   24508736   0
496   24510436   0
497   24512136   0
497   24513836   0
496   24515536   0
497   24517236   0
496   24518936   0
497   24520636   0
496   24522336   0
496   24524036   0
497   24525736   0
497   24527436   0
497   24529136   0
497   24530836   0
497   24532536   0
497   24534236   0
496   24535936   0
497   24537636   0
496   24539336   0
496   24541036   0
497   24542736   0
496   24544436   0
497   24546136   0
497   24547836   0
496   24549536   0
497   24551236   0
497   24552936   0
497   24554636   0
496   24556336   0
497   24558036   0
497   24559736   0
497   24561436   0
497   24563136   0
497   24564836   0
497   24566536   0
497   24568236   0
497   24569936   0
497   24571636   0
497   24573336   0
497   24575036   0
497   24576736   0
497   24578436   0
496   24580136   0
497   24581836   0
497   24583536   0
496   24585236   0
497   24586936   0
497   24588636   0
496   24590336   0
497   24592036   0
496   24593736   0
497   24595436   0
497   24597136   0
497   24598836   0
497   24600536   0
497   24602236   0
497   24603936   0
497   24605636   0
497   24607336   0
497   24609036   0
497   24610736   0
496   24612436   0
497   24614136   0
497   24615836   0
497   24617536   0
497   24619236   0
497   24620936   0
497   24622636   0
497   24624336   0
494   24626036   0
497   24627736   0
498   24629436   0
497   24631136   0
498   24632836   0
498   24634536   0
498   24636236   0
498   24637936   0
497   24639636   0
497   24641336   0
498   24643036   0
498   24644736   0
497   24646436   0
497   24648136   0
497   24649836   0
499   24651536   0
497   24653236   0
497   24654936   0
497   24656636   0
497   24658336   0
497   24660036   0
496   24661736   0
497   24663436   0
499   24665136   0
498   24666836   0
497   24668536   0
497   24670236   0
497   24671936   0
497   24673636   0
497   24675340   0
497   24677036   0
497   24678736   0
497   24680436   0
497   24682136   0
497   24683836   0
498   24685536   0
498   24687236   0
497   24688936   0
497   24690636   0
497   24692336   0
497   24694036   0
497   24695736   0
497   24697436   0
497   24699136   0
498   24700836   0
497   24702536   0
496   24704236   0
496   24705936   0
497   24707636   0
497   24709336   0
498   24711036   0
497   24712736   0
499   24714436   0
497   24716136   0
497   24717836   0
497   24719536   0
497   24721236   0
497   24722936   0
497   24724636   0
497   24726336   0
497   24728036   0
497   24729736   0
497   24731436   0
497   24733136   0
499   24734836   0
497   24736536   0
497   24738236   0
497   24739936   0
497   24741636   0
497   24743336   0
497   24745036   0
497   24746736   0
497   24748436   0
497   24750136   0
497   24751836   0
497   24753536   0
497   24755236   0
497   24756936   0
497   24758636   0
497   24760336   0
497   24762036   0
497   24763736   0
498   24765436   0
497   24767136   0
497   24768836   0
497   24770536   0
497   24772236   0
497   24773936   0
497   24775636   0
497   24777336   0
497   24779036   0
496   24780736   0
496   24782436   0
496   24784136   0
496   24785836   0
496   24787536   0
496   24789236   0
497   24790936   0
496   24792636   0
496   24794336   0
497   24796036   0
496   24797736   0
496   24799436   0
497   24801136   0
497   24802836   0
496   24804536   0
496   24806236   0
496   24807936   0
496   24809636   0
496   24811336   0
496   24813036   0
496   24814736   0
496   24816436   0
497   24818136   0
496   24819836   0
496   24821536   0
496   24823236   0
496   24824936   0
497   24826636   0
496   24828336   0
496   24830036   0
496   24831736   0
496   24833436   0
497   24835136   0
496   24836836   0
496   24838536   0
497   24840236   0
496   24841936   0
496   24843636   0
496   24845336   0
496   24847036   0
492   24848736   0
496   24850440   0
496   24852136   0
496   24853836   0
496   24855536   0
497   24857236   0
496   24858936   0
496   24860636   0
496   24862336   0
496   24864036   0
496   24865736   0
496   24867436   0
496   24869136   0
496   24870836   0
495   24872536   0
496   24874236   0
496   24875936   0
496   24877636   0
496   24879336   0
496   24881036   0
496   24882736   0
496   24884436   0
496   24886136   0
496   24887836   0
496   24889536   0
496   24891236   0
496   24892936   0
495   24894636   0
496   24896336   0
496   24898036   0
496   24899736   0
496   24901436   0
495   24903136   0
495   24904836   0
495   24906536   0
496   24908236   0
495   24909936   0
496   24911636   0
495   24913336   0
495   24915036   0
495   24916736   0
496   24918436   0
496   24920136   0
495   24921836   0
496   24923536   0
496   24925236   0
495   24926936   0
495   24928636   0
495   24930336   0
495   24932036   0
494   24933736   0
495   24935440   0
496   24937136   0
495   24938836   0
494   24940536   0
495   24942236   0
495   24943936   0
495   24945636   0
495   24947336   0
495   24949036   0
495   24950736   0
494   24952436   0
495   24954136   0
495   24955836   0
494   24957536   0
496   24959236   0
495   24960936   0
495   24962636   0
494   24964336   0
496   24966036   0
494   24967736   0
494   24969436   0
495   24971136   0
494   24972836   0
495   24974536   0
494   24976236   0
494   24977936   0
494   24979636   0
494   24981336   0
495   24983036   0
494   24984736   0
494   24986436   0
494   24988136   0
494   24989836   0
495   24991536   0
495   24993236   0
495   24994936   0
494   24996636   0
495   24998336   0
494   25000036   0
494   25001736   0
494   25003436   0
494   25005136   0
495   25006836   0
495   25008536   0
495   25010236   0
494   25011936   0
494   25013636   0
494   25015336   0
494   25017036   0
494   25018736   0
494   25020436   0
494   25022136   0
492   25023836   0
494   25025540   0
493   25027236   0
494   25028936   0
494   25030636   0
494   25032336   0
494   25034036   0
494   25035736   0
494   25037436   0
495   25039136   0
494   25040836   0
494   25042536   0
494   25044236   0
495   25045936   0
495   25047636   0
494   25049336   0
494   25051036   0
494   25052736   0
493   25054436   0
494   25056136   0
493   25057836   0
495   25059536   0
494   25061236   0
493   25062936   0
493   25064636   0
494   25066336   0
493   25068036   0
494   25069736   0
494   25071436   0
493   25073136   0
494   25074836   0
493   25076536   0
494   25078236   0
493   25079936   0
493   25081636   0
494   25083336   0
492   25085036   0
494   25086736   0
492   25088436   0
493   25090136   0
493   25091836   0
493   25093536   0
492   25095236   0
494   25096936   0
493   25098636   0
492   25100336   0
492   25102036   0
492   25103736   0
494   25105436   0
494   25107136   0
493   25108836   0
492   25110540   0
493   25112236   0
493   25113936   0
494   25115636   0
492   25117336   0
493   25119036   0
493   25120736   0
493   25122436   0
492   25124136   0
492   25125836   0
492   25127536   0
493   25129236   0
493   25130936   0
492   25132636   0
492   25134336   0
493   25136036   0
492   25137736   0
492   25139436   0
492   25141136   0
492   25142836   0
492   25144536   0
492   25146236   0
492   25147936   0
492   25149636   0
492   25151336   0
492   25153036   0
492   25154736   0
492   25156436   0
492   25158136   0
492   25159836   0
492   25161536   0
492   25163236   0
492   25164936   0
492   25166636   0
492   25168336   0
492   25170036   0
492   25171736   0
492   25173436   0
492   25175136   0
492   25176836   0
492   25178536   0
491   25180236   0
494   25181936   0
492   25183636   0
492   25185336   0
491   25187036   0
491   25188736   0
494   25190436   0
491   25192136   0
491   25193836   0
492   25195536   0
492   25197236   0
491   25198936   0
492   25200636   0
492   25202336   0
490   25204036   0
491   25205736   0
493   25207436   0
491   25209136   0
492   25210836   0
492   25212536   0
492   25214236   0
491   25215936   0
492   25217636   0
492   25219336   0
492   25221036   0
492   25222736   0
491   25224436   0
492   25226136   0
492   25227836   0
491   25229536   0
492   25231236   0
491   25232936   0
492   25234636   0
491   25236336   0
492   25238036   0
491   25239736   0
492   25241436   0
491   25243136   0
492   25244836   0
491   25246536   0
492   25248236   0
492   25249936   0
492   25251636   0
492   25253336   0
492   25255036   0
491   25256736   0
491   25258436   0
492   25260136   0
491   25261836   0
491   25263536   0
491   25265236   0
491   25266936   0
491   25268636   0
491   25270336   0
492   25272036   0
492   25273736   0
491   25275436   0
491   25277136   0
490   25278836   0
490   25280536   0
492   25282236   0
491   25283936   0
490   25285640   0
489   25287336   0
492   25289036   0
491   25290736   0
490   25292436   0
491   25294136   0
491   25295836   0
491   25297536   0
491   25299236   0
489   25300936   0
489   25302636   0
490   25304336   0
492   25306036   0
491   25307736   0
491   25309436   0
492   25311136   0
491   25312836   0
491   25314536   0
489   25316236   0
492   25317936   0
491   25319636   0
491   25321336   0
490   25323036   0
490   25324736   0
490   25326436   0
489   25328136   0
489   25329836   0
490   25331536   0
491   25333236   0
491   25334936   0
490   25336636   0
490   25338336   0
490   25340036   0
491   25341736   0
491   25343436   0
489   25345136   0
490   25346836   0
490   25348536   0
490   25350236   0
491   25351936   0
491   25353636   0
491   25355336   0
489   25357036   0
489   25358736   0
489   25360436   0
487   25362136   0
488   25363836   0
491   25365536   0
489   25367236   0
489   25368936   0
488   25370640   0
488   25372336   0
487   25374036   0
489   25375736   0
491   25377436   0
488   25379136   0
487   25380836   0
488   25382536   0
489   25384236   0
489   25385936   0
487   25387636   0
487   25389336   0
489   25391036   0
488   25392736   0
487   25394436   0
487   25396136   0
487   25397836   0
487   25399536   0
486   25401236   0
487   25402936   0
487   25404636   0
487   25406336   0
487   25408036   0
487   25409736   0
487   25411436   0
487   25413136   0
487   25414836   0
487   25416536   0
489   25418236   0
487   25419936   0
487   25421636   0
487   25423336   0
487   25425036   0
487   25426736   0
486   25428436   0
486   25430136   0
487   25431836   0
487   25433536   0
487   25435236   0
489   25436936   0
487   25438636   0
485   25440336   0
487   25442036   0
487   25443736   0
487   25445436   0
487   25447136   0
487   25448836   0
487   25450536   0
487   25452236   0
487   25453936   0
487   25455636   0
486   25457336   0
487   25459036   0
487   25460740   0
487   25462436   0
487   25464136   0
486   25465836   0
487   25467536   0
487   25469236   0
488   25470936   0
487   25472636   0
487   25474336   0
486   25476036   0
486   25477736   0
487   25479436   0
487   25481136   0
488   25482836   0
487   25484536   0
487   25486236   0
487   25487936   0
486   25489636   0
486   25491336   0
486   25493036   0
487   25494736   0
487   25496436   0
488   25498136   0
488   25499836   0
487   25501536   0
487   25503236   0
487   25504936   0
487   25506636   0
487   25508336   0
486   25510036   0
487   25511736   0
486   25513436   0
487   25515136   0
487   25516836   0
487   25518536   0
487   25520236   0
487   25521936   0
487   25523636   0
487   25525336   0
487   25527036   0
487   25528736   0
487   25530436   0
487   25532136   0
487   25533836   0
487   25535536   0
487   25537236   0
487   25538936   0
486   25540636   0
487   25542336   0
487   25544036   0
487   25545740   0
487   25547436   0
487   25549136   0
487   25550836   0
487   25552536   0
488   25554236   0
487   25555936   0
487   25557636   0
487   25559336   0
487   25561036   0
487   25562736   0
487   25564436   0
487   25566136   0
487   25567836   0
487   25569536   0
487   25571236   0
486   25572936   0
486   25574636   0
486   25576336   0
487   25578036   0
487   25579736   0
487   25581436   0
488   25583136   0
487   25584836   0
489   25586536   0
488   25588236   0
488   25589936   0
487   25591636   0
487   25593336   0
489   25595036   0
487   25596736   0
488   25598436   0
487   25600136   0
487   25601836   0
487   25603536   0
487   25605236   0
488   25606936   0
487   25608636   0
489   25610336   0
488   25612036   0
488   25613736   0
489   25615436   0
487   25617136   0
487   25618836   0
489   25620536   0
489   25622236   0
487   25623936   0
487   25625636   0
489   25627336   0
488   25629036   0
487   25630736   0
488   25632436   0
487   25634136   0
490   25635836   0
487   25637536   0
487   25639236   0
488   25640936   0
489   25642636   0
488   25644336   0
488   25646036   0
488   25647736   0
489   25649436   0
490   25651136   0
489   25652836   0
489   25654536   0
489   25656236   0
490   25657936   0
490   25659636   0
489   25661336   0
489   25663036   0
488   25664736   0
489   25666436   0
489   25668136   0
488   25669836   0
489   25671536   0
489   25673236   0
489   25674936   0
489   25676636   0
490   25678336   0
489   25680036   0
489   25681736   0
491   25683436   0
489   25685136   0
489   25686836   0
489   25688536   0
489   25690236   0
489   25691936   0
490   25693636   0
491   25695336   0
490   25697036   0
490   25698736   0
491   25700436   0
491   25702136   0
491   25703836   0
491   25705536   0
489   25707236   0
491   25708936   0
491   25710636   0
491   25712336   0
492   25714036   0
492   25715736   0
491   25717436   0
492   25719136   0
491   25720840   0
491   25722536   0
492   25724236   0
491   25725936   0
491   25727636   0
491   25729336   0
492   25731036   0
492   25732736   0
492   25734436   0
492   25736136   0
492   25737836   0
492   25739536   0
492   25741236   0
492   25742936   0
492   25744636   0
492   25746336   0
493   25748036   0
492   25749736   0
492   25751436   0
492   25753136   0
492   25754836   0
492   25756536   0
492   25758236   0
493   25759936   0
492   25761636   0
492   25763336   0
493   25765036   0
492   25766736   0
492   25768436   0
492   25770136   0
493   25771836   0
492   25773536   0
493   25775236   0
493   25776936   0
494   25778636   0
493   25780336   0
493   25782036   0
493   25783736   0
493   25785436   0
493   25787136   0
494   25788836   0
493   25790536   0
492   25792236   0
494   25793936   0
494   25795636   0
494   25797336   0
495   25799036   0
494   25800736   0
494   25802436   0
494   25804136   0
494   25805840   0
494   25807536   0
495   25809236   0
493   25810936   0
494   25812636   0
495   25814336   0
494   25816036   0
495   25817736   0
494   25819436   0
496   25821136   0
495   25822836   0
496   25824536   0
495   25826236   0
495   25827936   0
496   25829636   0
494   25831336   0
495   25833036   0
495   25834736   0
496   25836436   0
495   25838136   0
496   25839836   0
495   25841536   0
496   25843236   0
495   25844936   0
496   25846636   0
496   25848336   0
496   25850036   0
496   25851736   0
496   25853436   0
496   25855136   0
496   25856836   0
496   25858536   0
496   25860236   0
496   25861936   0
496   25863636   0
496   25865336   0
496   25867036   0
495   25868736   0
496   25870436   0
496   25872136   0
496   25873836   0
496   25875536   0
495   25877236   0
496   25878936   0
495   25880636   0
495   25882336   0
495   25884036   0
496   25885736   0
496   25887436   0
495   25889136   0
497   25890836   0
495   25892536   0
496   25894236   0
496   25895936   0
496   25897636   0
496   25899336   0
496   25901036   0
496   25902736   0
496   25904436   0
496   25906136   0
496   25907836   0
496   25909536   0
496   25911236   0
496   25912936   0
495   25914636   0
496   25916336   0
495   25918036   0
496   25919736   0
496   25921436   0
496   25923136   0
496   25924836   0
496   25926536   0
496   25928236   0
496   25929936   0
496   25931636   0
496   25933336   0
496   25935036   0
496   25936736   0
496   25938436   0
496   25940136   0
496   25941836   0
496   25943536   0
496   25945236   0
496   25946936   0
496   25948636   0
496   25950336   0
496   25952036   0
496   25953736   0
496   25955436   0
496   25957136   0
496   25958836   0
496   25960536   0
496   25962236   0
496   25963936   0
496   25965636   0
496   25967336   0
496   25969036   0
496   25970736   0
495   25972436   0
498   25974136   0
495   25975836   0
496   25977536   0
496   25979236   0
496   25980940   0
496   25982636   0
496   25984336   0
496   25986036   0
496   25987736   0
496   25989436   0
496   25991136   0
495   25992836   0
496   25994536   0
495   25996236   0
495   25997936   0
495   25999636   0
496   26001336   0
496   26003036   0
496   26004736   0
496   26006436   0
495   26008136   0
496   26009836   0
496   26011536   0
496   26013236   0
496   26014936   0
495   26016636   0
496   26018336   0
496   26020036   0
495   26021736   0
496   26023436   0
496   26025136   0
496   26026836   0
496   26028536   0
496   26030236   0
496   26031936   0
495   26033636   0
496   26035336   0
496   26037036   0
496   26038736   0
496   26040436   0
496   26042136   0
496   26043836   0
496   26045536   0
496   26047236   0
496   26048936   0
496   26050636   0
496   26052336   0
496   26054036   0
496   26055736   0
495   26057436   0
496   26059136   0
497   26060836   0
496   26062536   0
496   26064236   0
496   26065936   0
497   26067636   0
496   26069336   0
497   26071036   0
496   26072736   0
497   26074436   0
496   26076136   0
496   26077836   0
496   26079536   0
496   26081236   0
496   26082936   0
496   26084636   0
497   26086336   0
496   26088036   0
496   26089736   0
496   26091436   0
493   26093136   0
496   26094836   0
496   26096536   0
497   26098236   0
496   26099936   0
497   26101636   0
497   26103336   0
497   26105036   0
498   26106736   0
497   26108436   0
497   26110136   0
497   26111836   0
497   26113536   0
498   26115236   0
497   26116936   0
497   26118636   0
497   26120336   0
497   26122036   0
497   26123736   0
497   26125436   0
499   26127136   0
497   26128836   0
497   26130536   0
499   26132236   0
497   26133936   0
498   26135636   0
497   26137336   0
498   26139036   0
499   26140736   0
497   26142436   0
497   26144136   0
497   26145836   0
498   26147536   0
499   26149236   0
498   26150936   0
497   26152636   0
497   26154336   0
497   26156040   0
497   26157736   0
498   26159436   0
498   26161136   0
498   26162836   0
499   26164536   0
498   26166236   0
497   26167936   0
497   26169636   0
498   26171336   0
497   26173036   0
498   26174736   0
497   26176436   0
496   26178136   0
498   26179836   0
498   26181536   0
497   26183236   0
497   26184936   0
497   26186636   0
497   26188336   0
497   26190036   0
497   26191736   0
497   26193436   0
498   26195136   0
497   26196836   0
497   26198536   0
496   26200236   0
496   26201936   0
497   26203636   0
497   26205336   0
497   26207036   0
497   26208736   0
497   26210436   0
497   26212136   0
496   26213836   0
496   26215536   0
497   26217236   0
497   26218936   0
497   26220636   0
497   26222336   0
497   26224036   0
496   26225736   0
497   26227436   0
497   26229136   0
497   26230836   0
497   26232536   0
497   26234236   0
497   26235936   0
496   26237636   0
497   26239336   0
497   26241040   0
497   26242736   0
496   26244436   0
496   26246136   0
497   26247836   0
497   26249536   0
498   26251236   0
497   26252936   0
496   26254636   0
496   26256336   0
497   26258036   0
497   26259736   0
496   26261436   0
497   26263136   0
497   26264836   0
497   26266536   0
496   26268236   0
497   26269936   0
497   26271636   0
496   26273336   0
496   26275036   0
497   26276736   0
497   26278436   0
497   26280136   0
496   26281836   0
497   26283536   0
496   26285236   0
496   26286936   0
496   26288636   0
496   26290336   0
495   26292036   0
497   26293736   0
496   26295436   0
496   26297136   0
496   26298836   0
495   26300536   0
496   26302236   0
496   26303936   0
496   26305636   0
496   26307336   0
496   26309036   0
496   26310736   0
495   26312436   0
496   26314136   0
496   26315836   0
496   26317536   0
496   26319236   0
496   26320936   0
496   26322636   0
495   26324336   0
496   26326036   0
496   26327736   0
496   26329436   0
496   26331140   0
496   26332836   0
496   26334536   0
496   26336236   0
496   26337936   0
496   26339636   0
496   26341336   0
496   26343036   0
495   26344736   0
495   26346436   0
496   26348136   0
495   26349836   0
496   26351536   0
496   26353236   0
496   26354936   0
495   26356636   0
496   26358336   0
495   26360036   0
495   26361736   0
495   26363436   0
496   26365136   0
496   26366836   0
496   26368536   0
496   26370236   0
495   26371936   0
495   26373636   0
496   26375336   0
496   26377036   0
496   26378736   0
495   26380436   0
495   26382136   0
495   26383836   0
495   26385536   0
496   26387236   0
496   26388936   0
495   26390636   0
495   26392336   0
496   26394036   0
495   26395736   0
495   26397436   0
496   26399136   0
495   26400836   0
495   26402536   0
495   26404236   0
496   26405936   0
496   26407636   0
495   26409336   0
495   26411036   0
495   26412736   0
496   26414436   0
495   26416140   0
495   26417836   0
495   26419536   0
495   26421236   0
496   26422936   0
495   26424636   0
496   26426336   0
495   26428036   0
494   26429736   0
495   26431436   0
495   26433136   0
494   26434836   0
496   26436536   0
495   26438236   0
495   26439936   0
496   26441636   0
496   26443336   0
495   26445036   0
495   26446736   0
494   26448436   0
495   26450136   0
495   26451836   0
495   26453536   0
496   26455236   0
495   26456936   0
496   26458636   0
496   26460336   0
496   26462036   0
495   26463736   0
495   26465436   0
495   26467136   0
495   26468836   0
495   26470536   0
496   26472236   0
497   26473936   0
495   26475636   0
496   26477336   0
496   26479036   0
496   26480736   0
495   26482436   0
495   26484136   0
494   26485836   0
495   26487536   0
495   26489236   0
496   26490936   0
496   26492636   0
495   26494336   0
495   26496036   0
495   26497736   0
496   26499436   0
495   26501136   0
495   26502836   0
495   26504536   0
495   26506236   0
496   26507936   0
495   26509636   0
495   26511336   0
496   26513036   0
495   26514736   0
495   26516436   0
495   26518136   0
495   26519836   0
496   26521536   0
496   26523236   0
495   26524936   0
492   26526636   0
495   26528336   0
496   26530036   0
495   26531736   0
496   26533436   0
496   26535136   0
495   26536836   0
496   26538536   0
496   26540236   0
495   26541936   0
495   26543636   0
495   26545336   0
495   26547036   0
496   26548736   0
496   26550436   0
495   26552136   0
495   26553836   0
495   26555536   0
495   26557236   0
496   26558936   0
495   26560636   0
495   26562336   0
494   26564036   0
495   26565736   0
496   26567436   0
496   26569136   0
495   26570836   0
495   26572536   0
496   26574236   0
495   26575936   0
495   26577636   0
496   26579336   0
495   26581036   0
495   26582736   0
495   26584436   0
495   26586136   0
495   26587836   0
495   26589536   0
495   26591240   0
495   26592936   0
495   26594636   0
494   26596336   0
495   26598036   0
495   26599736   0
496   26601436   0
495   26603136   0
495   26604836   0
495   26606536   0
495   26608236   0
495   26609936   0
495   26611636   0
496   26613336   0
495   26615036   0
494   26616736   0
495   26618436   0
495   26620136   0
495   26621836   0
496   26623536   0
495   26625236   0
496   26626936   0
495   26628636   0
496   26630336   0
495   26632036   0
496   26633736   0
495   26635436   0
495   26637136   0
495   26638836   0
495   26640536   0
495   26642236   0
496   26643936   0
495   26645636   0
496   26647336   0
495   26649036   0
496   26650736   0
495   26652436   0
495   26654136   0
496   26655836   0
494   26657536   0
496   26659236   0
495   26660936   0
496   26662636   0
495   26664336   0
496   26666036   0
497   26667736   0
496   26669436   0
496   26671136   0
495   26672836   0
496   26674536   0
496   26676240   0
496   26677936   0
496   26679636   0
496   26681336   0
496   26683036   0
495   26684736   0
496   26686436   0
495   26688136   0
496   26689836   0
496   26691536   0
495   26693236   0
496   26694936   0
496   26696636   0
497   26698336   0
496   26700036   0
496   26701736   0
495   26703436   0
496   26705136   0
496   26706836   0
496   26708536   0
496   26710236   0
496   26711936   0
496   26713636   0
496   26715336   0
496   26717036   0
496   26718736   0
496   26720436   0
496   26722136   0
496   26723836   0
495   26725536   0
496   26727236   0
496   26728936   0
496   26730636   0
496   26732336   0
496   26734036   0
496   26735736   0
496   26737436   0
496   26739136   0
496   26740836   0
496   26742536   0
496   26744236   0
496   26745936   0
496   26747636   0
495   26749336   0
496   26751036   0
496   26752736   0
496   26754436   0
496   26756136   0
496   26757836   0
496   26759536   0
495   26761236   0
495   26762936   0
495   26764636   0
496   26766340   0
496   26768036   0
495   26769736   0
496   26771436   0
495   26773136   0
496   26774836   0
496   26776536   0
496   26778236   0
495   26779936   0
496   26781636   0
497   26783336   0
494   26785036   0
496   26786736   0
496   26788436   0
496   26790136   0
496   26791836   0
496   26793536   0
496   26795236   0
496   26796936   0
496   26798636   0
496   26800336   0
496   26802036   0
495   26803736   0
495   26805436   0
496   26807136   0
496   26808836   0
496   26810536   0
495   26812236   0
496   26813936   0
496   26815636   0
496   26817336   0
496   26819036   0
495   26820736   0
496   26822436   0
496   26824136   0
495   26825836   0
496   26827536   0
496   26829236   0
495   26830936   0
498   26832636   0
496   26834336   0
496   26836036   0
495   26837736   0
495   26839436   0
494   26841136   0
496   26842836   0
496   26844536   0
496   26846236   0
496   26847936   0
496   26849636   0
496   26851340   0
496   26853036   0
495   26854736   0
495   26856436   0
496   26858136   0
496   26859836   0
496   26861536   0
495   26863236   0
495   26864936   0
496   26866636   0
495   26868336   0
496   26870036   0
495   26871736   0
495   26873436   0
496   26875136   0
496   26876836   0
496   26878536   0
496   26880236   0
496   26881936   0
496   26883636   0
496   26885336   0
496   26887036   0
496   26888736   0
495   26890436   0
495   26892136   0
496   26893836   0
496   26895536   0
495   26897236   0
496   26898936   0
495   26900636   0
495   26902336   0
496   26904036   0
495   26905736   0
496   26907436   0
495   26909136   0
495   26910836   0
495   26912536   0
496   26914236   0
495   26915936   0
496   26917636   0
496   26919336   0
495   26921036   0
496   26922736   0
497   26924436   0
496   26926136   0
495   26927836   0
495   26929536   0
496   26931236   0
496   26932936   0
495   26934636   0
495   26936336   0
496   26938036   0
496   26939736   0
496   26941436   0
496   26943136   0
495   26944836   0
496   26946536   0
496   26948236   0
495   26949936   0
495   26951636   0
495   26953336   0
496   26955036   0
495   26956736   0
496   26958436   0
496   26960136   0
496   26961836   0
495   26963536   0
496   26965236   0
496   26966936   0
495   26968636   0
495   26970336   0
495   26972036   0
495   26973736   0
496   26975436   0
495   26977136   0
496   26978836   0
495   26980536   0
496   26982236   0
496   26983936   0
496   26985636   0
496   26987336   0
495   26989036   0
495   26990736   0
495   26992436   0
496   26994136   0
496   26995836   0
495   26997536   0
496   26999236   0
495   27000936   0
496   27002636   0
495   27004336   0
496   27006036   0
496   27007736   0
495   27009436   0
496   27011136   0
496   27012836   0
495   27014536   0
496   27016236   0
495   27017936   0
496   27019636   0
496   27021336   0
496   27023036   0
495   27024736   0
495   27026440   0
496   27028136   0
496   27029836   0
495   27031536   0
496   27033236   0
494   27034936   0
495   27036636   0
496   27038336   0
495   27040036   0
496   27041736   0
500   27043436   0
495   27045136   0
496   27046836   0
496   27048536   0
496   27050236   0
496   27051936   0
496   27053636   0
495   27055336   0
495   27057036   0
496   27058736   0
496   27060436   0
496   27062136   0
495   27063836   0
495   27065536   0
496   27067236   0
495   27068936   0
496   27070636   0
495   27072336   0
495   27074036   0
496   27075736   0
496   27077436   0
496   27079136   0
496   27080836   0
496   27082536   0
496   27084236   0
496   27085936   0
496   27087636   0
496   27089336   0
496   27091036   0
496   27092736   0
496   27094436   0
495   27096136   0
496   27097836   0
496   27099536   0
495   27101236   0
496   27102936   0
496   27104636   0
496   27106336   0
496   27108036   0
496   27109736   0
495   27111440   0
496   27113136   0
496   27114836   0
496   27116536   0
496   27118236   0
495   27119936   0
495   27121636   0
495   27123336   0
496   27125036   0
496   27126736   0
496   27128436   0
496   27130136   0
496   27131836   0
496   27133536   0
496   27135236   0
496   27136936   0
496   27138636   0
495   27140336   0
496   27142036   0
495   27143736   0
496   27145436   0
496   27147136   0
496   27148836   0
496   27150536   0
496   27152236   0
496   27153936   0
496   27155636   0
495   27157336   0
496   27159036   0
495   27160736   0
496   27162436   0
496   27164136   0
495   27165836   0
496   27167536   0
495   27169236   0
496   27170936   0
496   27172636   0
496   27174336   0
495   27176036   0
496   27177736   0
496   27179436   0
495   27181136   0
497   27182836   0
496   27184536   0
496   27186236   0
496   27187936   0
495   27189636   0
496   27191336   0
496   27193036   0
496   27194736   0
496   27196436   0
496   27198136   0
496   27199836   0
496   27201540   0
496   27203236   0
495   27204936   0
496   27206636   0
496   27208336   0
495   27210036   0
495   27211736   0
496   27213436   0
496   27215136   0
496   27216836   0
495   27218536   0
496   27220236   0
495   27221936   0
496   27223636   0
495   27225336   0
496   27227036   0
496   27228736   0
496   27230436   0
496   27232136   0
496   27233836   0
495   27235536   0
496   27237236   0
496   27238936   0
496   27240636   0
496   27242336   0
496   27244036   0
496   27245736   0
496   27247436   0
496   27249136   0
496   27250836   0
496   27252536   0
496   27254236   0
496   27255936   0
495   27257636   0
496   27259336   0
496   27261036   0
496   27262736   0
496   27264436   0
495   27266136   0
496   27267836   0
496   27269536   0
496   27271236   0
496   27272936   0
496   27274636   0
495   27276336   0
495   27278036   0
496   27279736   0
496   27281436   0
495   27283136   0
496   27284836   0
496   27286540   0
496   27288236   0
496   27289936   0
496   27291636   0
496   27293336   0
496   27295036   0
495   27296736   0
495   27298436   0
496   27300136   0
496   27301836   0
496   27303536   0
496   27305236   0
496   27306936   0
496   27308636   0
495   27310336   0
496   27312036   0
495   27313736   0
496   27315436   0
496   27317136   0
495   27318836   0
496   27320536   0
496   27322236   0
496   27323936   0
496   27325636   0
495   27327336   0
496   27329036   0
496   27330736   0
496   27332436   0
496   27334136   0
496   27335836   0
496   27337536   0
495   27339236   0
496   27340936   0
496   27342636   0
497   27344336   0
496   27346036   0
496   27347736   0
496   27349436   0
496   27351136   0
496   27352836   0
496   27354536   0
496   27356236   0
497   27357936   0
496   27359636   0
497   27361336   0
496   27363036   0
495   27364736   0
496   27366436   0
496   27368136   0
496   27369836   0
496   27371536   0
496   27373236   0
496   27374936   0
496   27376636   0
496   27378336   0
496   27380036   0
496   27381736   0
496   27383436   0
496   27385136   0
496   27386836   0
496   27388536   0
496   27390236   0
496   27391936   0
497   27393636   0
496   27395336   0
496   27397036   0
496   27398736   0
497   27400436   0
496   27402136   0
496   27403836   0
496   27405536   0
496   27407236   0
496   27408936   0
496   27410636   0
496   27412336   0
496   27414036   0
496   27415736   0
496   27417436   0
496   27419136   0
496   27420836   0
496   27422536   0
496   27424236   0
496   27425936   0
496   27427636   0
496   27429336   0
496   27431036   0
496   27432736   0
495   27434436   0
496   27436136   0
496   27437836   0
496   27439536   0
496   27441236   0
496   27442936   0
496   27444636   0
496   27446336   0
496   27448036   0
496   27449736   0
496   27451436   0
496   27453136   0
496   27454836   0
496   27456536   0
496   27458236   0
496   27459936   0
495   27461640   0
496   27463336   0
496   27465036   0
496   27466736   0
496   27468436   0
496   27470136   0
496   27471836   0
495   27473536   0
496   27475236   0
492   27476936   0
495   27478636   0
495   27480336   0
495   27482036   0
496   27483736   0
496   27485436   0
496   27487136   0
496   27488836   0
496   27490536   0
496   27492236   0
496   27493936   0
496   27495636   0
496   27497336   0
496   27499036   0
495   27500736   0
496   27502436   0
496   27504136   0
496   27505836   0
496   27507536   0
496   27509236   0
496   27510936   0
496   27512636   0
496   27514336   0
496   27516036   0
496   27517736   0
496   27519436   0
496   27521136   0
496   27522836   0
496   27524536   0
495   27526236   0
496   27527936   0
495   27529636   0
496   27531336   0
496   27533036   0
495   27534736   0
496   27536436   0
496   27538136   0
496   27539836   0
496   27541536   0
496   27543236   0
496   27544936   0
496   27546640   0
496   27548336   0
496   27550036   0
496   27551736   0
495   27553436   0
496   27555136   0
495   27556836   0
496   27558536   0
496   27560236   0
496   27561936   0
496   27563636   0
496   27565336   0
497   27567036   0
496   27568736   0
496   27570436   0
496   27572136   0
497   27573836   0
496   27575536   0
496   27577236   0
496   27578936   0
496   27580636   0
496   27582336   0
496   27584036   0
495   27585736   0
496   27587436   0
496   27589136   0
496   27590836   0
497   27592536   0
497   27594236   0
497   27595936   0
496   27597636   0
496   27599336   0
496   27601036   0
496   27602736   0
496   27604436   0
496   27606136   0
495   27607836   0
496   27609536   0
497   27611236   0
496   27612936   0
496   27614636   0
497   27616336   0
495   27618036   0
496   27619736   0
496   27621436   0
496   27623136   0
496   27624836   0
496   27626536   0
496   27628236   0
496   27629936   0
496   27631636   0
495   27633336   0
496   27635036   0
496   27636736   0
496   27638436   0
496   27640136   0
496   27641836   0
496   27643536   0
496   27645236   0
496   27646936   0
496   27648636   0
495   27650336   0
496   27652036   0
496   27653736   0
496   27655436   0
496   27657136   0
496   27658836   0
496   27660536   0
496   27662236   0
496   27663936   0
496   27665636   0
496   27667336   0
496   27669036   0
496   27670736   0
496   27672436   0
496   27674136   0
496   27675836   0
496   27677536   0
496   27679236   0
496   27680936   0
496   27682636   0
496   27684336   0
496   27686036   0
496   27687736   0
496   27689436   0
496   27691136   0
496   27692836   0
496   27694536   0
496   27696236   0
496   27697936   0
496   27699636   0
496   27701336   0
496   27703036   0
497   27704736   0
496   27706436   0
496   27708136   0
496   27709836   0
496   27711536   0
496   27713236   0
497   27714936   0
496   27716636   0
496   27718336   0
496   27720036   0
496   27721740   0
496   27723436   0
496   27725136   0
496   27726836   0
495   27728536   0
496   27730236   0
496   27731936   0
496   27733636   0
496   27735336   0
496   27737036   0
496   27738736   0
496   27740436   0
496   27742136   0
496   27743836   0
496   27745536   0
496   27747236   0
496   27748936   0
496   27750636   0
496   27752336   0
496   27754036   0
496   27755736   0
495   27757436   0
496   27759136   0
496   27760836   0
496   27762536   0
496   27764236   0
496   27765936   0
496   27767636   0
496   27769336   0
496   27771036   0
496   27772736   0
496   27774436   0
496   27776136   0
496   27777836   0
495   27779536   0
496   27781236   0
496   27782936   0
496   27784636   0
496   27786336   0
496   27788036   0
496   27789736   0
494   27791436   0
496   27793136   0
496   27794836   0
496   27796536   0
497   27798236   0
496   27799936   0
496   27801636   0
496   27803336   0
496   27805036   0
496   27806736   0
496   27808436   0
496   27810136   0
496   27811836   0
496   27813536   0
496   27815236   0
496   27816936   0
496   27818636   0
496   27820336   0
496   27822036   0
495   27823736   0
496   27825436   0
495   27827136   0
496   27828836   0
496   27830536   0
495   27832236   0
496   27833936   0
496   27835636   0
496   27837336   0
496   27839036   0
496   27840736   0
496   27842436   0
496   27844136   0
496   27845836   0
496   27847536   0
496   27849236   0
496   27850936   0
496   27852636   0
496   27854336   0
496   27856036   0
496   27857736   0
496   27859436   0
496   27861136   0
496   27862836   0
496   27864536   0
496   27866236   0
495   27867936   0
496   27869636   0
496   27871336   0
496   27873036   0
497   27874736   0
496   27876436   0
496   27878136   0
496   27879836   0
496   27881536   0
496   27883236   0
496   27884936   0
496   27886636   0
495   27888336   0
496   27890036   0
496   27891736   0
496   27893436   0
496   27895136   0
496   27896840   0
496   27898536   0
496   27900236   0
497   27901936   0
496   27903636   0
496   27905336   0
496   27907036   0
496   27908736   0
496   27910436   0
495   27912136   0
495   27913836   0
496   27915536   0
496   27917236   0
496   27918936   0
496   27920636   0
496   27922336   0
496   27924036   0
496   27925736   0
496   27927436   0
496   27929136   0
495   27930836   0
496   27932536   0
496   27934236   0
496   27935936   0
495   27937636   0
496   27939336   0
496   27941036   0
496   27942736   0
496   27944436   0
496   27946136   0
496   27947836   0
496   27949536   0
496   27951236   0
496   27952936   0
496   27954636   0
496   27956336   0
496   27958036   0
496   27959736   0
496   27961436   0
496   27963136   0
496   27964836   0
496   27966536   0
497   27968236   0
496   27969936   0
496   27971636   0
497   27973336   0
496   27975036   0
496   27976736   0
496   27978436   0
496   27980136   0
496   27981840   0
496   27983536   0
496   27985236   0
497   27986936   0
497   27988636   0
496   27990336   0
496   27992036   0
494   27993736   0
496   27995436   0
496   27997136   0
496   27998836   0
496   28000536   0
496   28002236   0
497   28003936   0
496   28005636   0
496   28007336   0
496   28009036   0
496   28010736   0
495   28012436   0
496   28014136   0
496   28015836   0
496   28017536   0
495   28019236   0
496   28020936   0
496   28022636   0
495   28024336   0
496   28026036   0
496   28027736   0
496   28029436   0
496   28031136   0
496   28032836   0
497   28034536   0
495   28036236   0
496   28037936   0
496   28039636   0
497   28041336   0
496   28043036   0
496   28044736   0
496   28046436   0
496   28048136   0
496   28049836   0
496   28051536   0
496   28053236   0
496   28054936   0
496   28056636   0
497   28058336   0
496   28060036   0
496   28061736   0
497   28063436   0
496   28065136   0
496   28066836   0
496   28068536   0
496   28070236   0
496   28071936   0
497   28073636   0
496   28075336   0
495   28077036   0
496   28078736   0
496   28080436   0
496   28082136   0
496   28083836   0
496   28085536   0
496   28087236   0
496   28088936   0
496   28090636   0
495   28092336   0
496   28094036   0
496   28095736   0
496   28097436   0
496   28099136   0
496   28100836   0
495   28102536   0
497   28104236   0
496   28105936   0
496   28107636   0
496   28109336   0
496   28111036   0
494   28112736   0
496   28114436   0
495   28116136   0
496   28117836   0
496   28119536   0
496   28121236   0
496   28122936   0
496   28124636   0
496   28126336   0
496   28128036   0
495   28129736   0
496   28131436   0
496   28133136   0
496   28134836   0
496   28136536   0
495   28138236   0
495   28139936   0
494   28141636   0
496   28143336   0
496   28145036   0
496   28146736   0
495   28148436   0
495   28150136   0
496   28151836   0
495   28153536   0
496   28155236   0
495   28156940   0
496   28158636   0
495   28160336   0
495   28162036   0
496   28163736   0
496   28165436   0
495   28167136   0
495   28168836   0
496   28170536   0
494   28172236   0
494   28173936   0
495   28175636   0
496   28177336   0
495   28179036   0
495   28180736   0
496   28182436   0
495   28184136   0
496   28185836   0
495   28187536   0
496   28189236   0
496   28190936   0
495   28192636   0
496   28194336   0
494   28196036   0
496   28197736   0
494   28199436   0
496   28201136   0
495   28202836   0
495   28204536   0
496   28206236   0
495   28207936   0
495   28209636   0
495   28211336   0
496   28213036   0
495   28214736   0
494   28216436   0
496   28218136   0
495   28219836   0
495   28221536   0
494   28223236   0
495   28224936   0
495   28226636   0
496   28228336   0
495   28230036   0
495   28231736   0
496   28233436   0
495   28235136   0
495   28236836   0
496   28238536   0
495   28240236   0
496   28241936   0
495   28243636   0
495   28245336   0
495   28247036   0
495   28248736   0
496   28250436   0
496   28252136   0
495   28253836   0
495   28255536   0
494   28257236   0
495   28258936   0
495   28260636   0
495   28262336   0
495   28264036   0
496   28265736   0
495   28267436   0
496   28269136   0
496   28270836   0
496   28272536   0
496   28274236   0
496   28275936   0
495   28277636   0
494   28279336   0
495   28281036   0
495   28282736   0
495   28284436   0
495   28286136   0
496   28287836   0
495   28289536   0
495   28291236   0
495   28292936   0
496   28294636   0
495   28296336   0
495   28298036   0
496   28299736   0
495   28301436   0
495   28303136   0
495   28304836   0
495   28306536   0
493   28308236   0
496   28309936   0
495   28311636   0
496   28313336   0
494   28315036   0
494   28316736   0
494   28318436   0
495   28320136   0
495   28321836   0
495   28323536   0
495   28325236   0
495   28326936   0
495   28328636   0
495   28330336   0
494   28332040   0
495   28333736   0
496   28335436   0
495   28337136   0
496   28338836   0
494   28340536   0
496   28342236   0
494   28343936   0
496   28345636   0
496   28347336   0
495   28349036   0
496   28350736   0
496   28352436   0
496   28354136   0
496   28355836   0
495   28357536   0
495   28359236   0
495   28360936   0
496   28362636   0
495   28364336   0
496   28366036   0
496   28367736   0
495   28369436   0
496   28371136   0
494   28372836   0
496   28374536   0
496   28376236   0
496   28377936   0
496   28379636   0
496   28381336   0
496   28383036   0
495   28384736   0
496   28386436   0
496   28388136   0
496   28389836   0
494   28391536   0
495   28393236   0
495   28394936   0
496   28396636   0
495   28398336   0
495   28400036   0
496   28401736   0
496   28403436   0
496   28405136   0
496   28406836   0
495   28408536   0
495   28410236   0
495   28411936   0
496   28413636   0
495   28415336   0
496   28417040   0
497   28418736   0
495   28420436   0
496   28422136   0
496   28423836   0
496   28425536   0
499   28427236   0
496   28428936   0
496   28430636   0
496   28432336   0
495   28434036   0
496   28435736   0
496   28437436   0
495   28439136   0
496   28440836   0
496   28442536   0
496   28444236   0
496   28445936   0
496   28447636   0
496   28449336   0
495   28451036   0
495   28452736   0
495   28454436   0
496   28456136   0
496   28457836   0
495   28459536   0
496   28461236   0
496   28462936   0
495   28464636   0
496   28466336   0
495   28468036   0
496   28469736   0
494   28471436   0
496   28473136   0
496   28474836   0
495   28476536   0
496   28478236   0
496   28479936   0
496   28481636   0
496   28483336   0
496   28485036   0
496   28486736   0
495   28488436   0
496   28490136   0
496   28491836   0
496   28493536   0
496   28495236   0
496   28496936   0
496   28498636   0
495   28500336   0
495   28502036   0
495   28503736   0
495   28505436   0
495   28507136   0
496   28508836   0
495   28510536   0
496   28512236   0
496   28513936   0
496   28515636   0
496   28517336   0
496   28519036   0
496   28520736   0
495   28522436   0
495   28524136   0
495   28525836   0
495   28527536   0
495   28529236   0
495   28530936   0
494   28532636   0
495   28534336   0
495   28536036   0
495   28537736   0
495   28539436   0
496   28541136   0
495   28542836   0
495   28544536   0
496   28546236   0
495   28547936   0
495   28549636   0
495   28551336   0
495   28553036   0
495   28554736   0
496   28556436   0
496   28558136   0
495   28559836   0
496   28561536   0
495   28563236   0
496   28564936   0
496   28566636   0
496   28568336   0
496   28570036   0
495   28571736   0
496   28573436   0
495   28575136   0
496   28576836   0
495   28578536   0
495   28580236   0
495   28581936   0
496   28583636   0
496   28585336   0
495   28587036   0
494   28588736   0
495   28590436   0
496   28592140   0
496   28593836   0
495   28595536   0
496   28597236   0
495   28598936   0
496   28600636   0
496   28602336   0
496   28604036   0
496   28605736   0
496   28607436   0
495   28609136   0
494   28610836   0
495   28612536   0
496   28614236   0
496   28615936   0
496   28617636   0
496   28619336   0
495   28621036   0
496   28622736   0
496   28624436   0
495   28626136   0
496   28627836   0
496   28629536   0
496   28631236   0
495   28632936   0
495   28634636   0
496   28636336   0
495   28638036   0
495   28639736   0
496   28641436   0
496   28643136   0
495   28644836   0
496   28646536   0
496   28648236   0
496   28649936   0
496   28651636   0
495   28653336   0
495   28655036   0
496   28656736   0
496   28658436   0
495   28660136   0
495   28661836   0
495   28663536   0
496   28665236   0
495   28666936   0
495   28668636   0
496   28670336   0
496   28672036   0
496   28673736   0
496   28675436   0
496   28677136   0
495   28678836   0
495   28680536   0
495   28682236   0
495   28683936   0
494   28685636   0
495   28687336   0
496   28689036   0
496   28690736   0
495   28692436   0
496   28694136   0
495   28695836   0
495   28697536   0
495   28699236   0
496   28700936   0
496   28702636   0
496   28704336   0
495   28706036   0
496   28707736   0
496   28709436   0
496   28711136   0
496   28712836   0
496   28714536   0
495   28716236   0
496   28717936   0
495   28719636   0
495   28721336   0
496   28723036   0
495   28724736   0
496   28726436   0
495   28728136   0
496   28729836   0
496   28731536   0
496   28733236   0
496   28734936   0
494   28736636   0
496   28738336   0
496   28740036   0
495   28741736   0
495   28743436   0
495   28745136   0
494   28746836   0
495   28748536   0
496   28750236   0
495   28751936   0
495   28753636   0
496   28755336   0
496   28757036   0
495   28758736   0
495   28760436   0
496   28762136   0
495   28763836   0
494   28765536   0
495   28767240   0
495   28768936   0
495   28770636   0
496   28772336   0
495   28774036   0
496   28775736   0
494   28777436   0
496   28779136   0
496   28780836   0
496   28782536   0
495   28784236   0
495   28785936   0
496   28787636   0
495   28789336   0
495   28791036   0
495   28792736   0
494   28794436   0
495   28796136   0
496   28797836   0
495   28799536   0
495   28801236   0
496   28802936   0
496   28804636   0
496   28806336   0
496   28808036   0
495   28809736   0
495   28811436   0
496   28813136   0
495   28814836   0
495   28816536   0
496   28818236   0
495   28819936   0
496   28821636   0
495   28823336   0
495   28825036   0
496   28826736   0
495   28828436   0
496   28830136   0
495   28831836   0
496   28833536   0
495   28835236   0
495   28836936   0
496   28838636   0
496   28840336   0
496   28842036   0
496   28843736   0
495   28845436   0
495   28847136   0
496   28848836   0
496   28850536   0
495   28852240   0
495   28853936   0
495   28855636   0
495   28857336   0
496   28859036   0
496   28860736   0
496   28862436   0
495   28864136   0
496   28865836   0
495   28867536   0
495   28869236   0
495   28870936   0
495   28872636   0
496   28874336   0
496   28876036   0
496   28877736   0
494   28879436   0
496   28881136   0
496   28882836   0
495   28884536   0
495   28886236   0
496   28887936   0
496   28889636   0
495   28891336   0
495   28893036   0
496   28894736   0
496   28896436   0
495   28898136   0
495   28899836   0
495   28901536   0
494   28903236   0
495   28904936   0
495   28906636   0
495   28908336   0
496   28910036   0
495   28911736   0
495   28913436   0
494   28915136   0
496   28916836   0
497   28918536   0
495   28920236   0
496   28921936   0
495   28923636   0
496   28925336   0
495   28927036   0
494   28928736   0
496   28930436   0
494   28932136   0
496   28933836   0
495   28935536   0
495   28937236   0
494   28938936   0
495   28940636   0
496   28942336   0
494   28944036   0
496   28945736   0
494   28947436   0
494   28949136   0
494   28950836   0
495   28952536   0
495   28954236   0
496   28955936   0
495   28957636   0
495   28959336   0
495   28961036   0
494   28962736   0
495   28964436   0
495   28966136   0
495   28967836   0
496   28969536   0
495   28971236   0
495   28972936   0
494   28974636   0
496   28976336   0
495   28978036   0
495   28979736   0
495   28981436   0
499   28983136   0
496   28984836   0
496   28986536   0
495   28988236   0
496   28989936   0
495   28991636   0
496   28993336   0
495   28995036   0
495   28996736   0
495   28998436   0
495   29000136   0
495   29001836   0
494   29003536   0
495   29005236   0
496   29006936   0
496   29008636   0
495   29010336   0
495   29012036   0
495   29013736   0
495   29015436   0
496   29017136   0
496   29018836   0
496   29020536   0
496   29022236   0
495   29023936   0
496   29025636   0
495   29027340   0
495   29029036   0
495   29030736   0
496   29032436   0
495   29034136   0
495   29035836   0
496   29037536   0
496   29039236   0
496   29040936   0
496   29042636   0
496   29044336   0
495   29046036   0
496   29047736   0
495   29049436   0
496   29051136   0
496   29052836   0
496   29054536   0
496   29056236   0
496   29057936   0
496   29059636   0
496   29061336   0
496   29063036   0
495   29064736   0
496   29066436   0
496   29068136   0
495   29069836   0
496   29071536   0
496   29073236   0
496   29074936   0
496   29076636   0
496   29078336   0
496   29080036   0
496   29081736   0
494   29083436   0
496   29085136   0
496   29086836   0
496   29088536   0
496   29090236   0
496   29091936   0
496   29093636   0
496   29095336   0
496   29097036   0
496   29098736   0
496   29100436   0
496   29102136   0
496   29103836   0
496   29105536   0
495   29107236   0
496   29108936   0
496   29110636   0
496   29112336   0
496   29114036   0
495   29115736   0
496   29117436   0
498   29119136   0
496   29120836   0
496   29122536   0
496   29124236   0
496   29125936   0
497   29127636   0
497   29129336   0
496   29131036   0
496   29132736   0
496   29134436   0
496   29136136   0
496   29137836   0
496   29139536   0
496   29141236   0
496   29142936   0
495   29144636   0
497   29146336   0
496   29148036   0
496   29149736   0
496   29151436   0
496   29153136   0
496   29154836   0
496   29156536   0
496   29158236   0
496   29159936   0
497   29161636   0
497   29163336   0
496   29165036   0
495   29166736   0
496   29168436   0
497   29170136   0
496   29171836   0
496   29173536   0
497   29175236   0
496   29176936   0
497   29178636   0
496   29180336   0
496   29182036   0
496   29183736   0
496   29185436   0
496   29187136   0
496   29188836   0
496   29190536   0
496   29192236   0
496   29193936   0
496   29195636   0
496   29197336   0
496   29199036   0
496   29200736   0
495   29202440   0
496   29204136   0
496   29205836   0
496   29207536   0
496   29209236   0
496   29210936   0
496   29212636   0
496   29214336   0
496   29216036   0
497   29217736   0
496   29219436   0
496   29221136   0
497   29222836   0
496   29224536   0
496   29226236   0
497   29227936   0
496   29229636   0
496   29231336   0
496   29233036   0
497   29234736   0
496   29236436   0
496   29238136   0
496   29239836   0
496   29241536   0
496   29243236   0
497   29244936   0
496   29246636   0
496   29248336   0
496   29250036   0
496   29251736   0
496   29253436   0
496   29255136   0
496   29256836   0
496   29258536   0
496   29260236   0
496   29261936   0
497   29263636   0
496   29265336   0
496   29267036   0
497   29268736   0
496   29270436   0
496   29272136   0
496   29273836   0
496   29275536   0
496   29277236   0
496   29278936   0
496   29280636   0
496   29282336   0
496   29284036   0
496   29285736   0
495   29287440   0
496   29289136   0
496   29290836   0
496   29292536   0
496   29294236   0
496   29295936   0
496   29297636   0
496   29299336   0
496   29301036   0
496   29302736   0
496   29304436   0
496   29306136   0
496   29307836   0
496   29309536   0
496   29311236   0
495   29312936   0
496   29314636   0
495   29316336   0
496   29318036   0
495   29319736   0
496   29321436   0
496   29323136   0
496   29324836   0
496   29326536   0
496   29328236   0
496   29329936   0
497   29331636   0
496   29333336   0
496   29335036   0
496   29336736   0
496   29338436   0
495   29340136   0
496   29341836   0
495   29343536   0
495   29345236   0
495   29346936   0
496   29348636   0
496   29350336   0
495   29352036   0
495   29353736   0
496   29355436   0
496   29357136   0
496   29358836   0
496   29360536   0
495   29362236   0
496   29363936   0
496   29365636   0
496   29367336   0
496   29369036   0
496   29370736   0
496   29372436   0
496   29374136   0
496   29375836   0
492   29377536   0
496   29379236   0
496   29380936   0
496   29382636   0
496   29384336   0
496   29386036   0
497   29387736   0
496   29389436   0
496   29391136   0
497   29392836   0
496   29394536   0
496   29396236   0
496   29397936   0
496   29399636   0
497   29401336   0
497   29403036   0
496   29404736   0
497   29406436   0
496   29408136   0
496   29409836   0
496   29411536   0
496   29413236   0
496   29414936   0
497   29416636   0
496   29418336   0
496   29420036   0
496   29421736   0
496   29423436   0
499   29425136   0
498   29426836   0
496   29428536   0
497   29430236   0
497   29431936   0
498   29433636   0
499   29435336   0
496   29437036   0
498   29438736   0
497   29440436   0
497   29442136   0
498   29443836   0
496   29445536   0
498   29447236   0
498   29448936   0
499   29450636   0
497   29452336   0
497   29454036   0
497   29455736   0
497   29457436   0
497   29459136   0
497   29460836   0
499   29462540   0
497   29464236   0
496   29465936   0
499   29467636   0
498   29469336   0
498   29471036   0
497   29472736   0
498   29474436   0
498   29476136   0
496   29477836   0
498   29479536   0
499   29481236   0
497   29482936   0
499   29484636   0
497   29486336   0
499   29488036   0
497   29489736   0
498   29491436   0
498   29493136   0
497   29494836   0
498   29496536   0
498   29498236   0
498   29499936   0
497   29501636   0
497   29503336   0
499   29505036   0
498   29506736   0
499   29508436   0
499   29510136   0
498   29511836   0
497   29513536   0
499   29515236   0
499   29516936   0
497   29518636   0
498   29520336   0
498   29522036   0
497   29523736   0
500   29525436   0
498   29527136   0
498   29528836   0
499   29530536   0
498   29532236   0
498   29533936   0
498   29535636   0
497   29537336   0
498   29539036   0
497   29540736   0
498   29542436   0
498   29544136   0
499   29545836   0
499   29547536   0
497   29549236   0
498   29550936   0
497   29552636   0
499   29554336   0
498   29556036   0
499   29557736   0
497   29559436   0
497   29561136   0
498   29562836   0
498   29564536   0
499   29566236   0
497   29567936   0
497   29569636   0
499   29571336   0
498   29573036   0
498   29574736   0
498   29576436   0
498   29578136   0
497   29579836   0
498   29581536   0
498   29583236   0
497   29584936   0
497   29586636   0
497   29588336   0
498   29590036   0
497   29591736   0
498   29593436   0
497   29595136   0
497   29596836   0
497   29598536   0
497   29600236   0
498   29601936   0
497   29603636   0
498   29605336   0
497   29607036   0
498   29608736   0
499   29610436   0
498   29612136   0
497   29613836   0
497   29615536   0
499   29617236   0
498   29618936   0
497   29620636   0
498   29622336   0
498   29624036   0
498   29625736   0
497   29627436   0
497   29629136   0
497   29630836   0
498   29632536   0
497   29634236   0
497   29635936   0
499   29637640   0
497   29639336   0
498   29641036   0
497   29642736   0
498   29644436   0
496   29646136   0
497   29647836   0
498   29649536   0
497   29651236   0
497   29652936   0
497   29654636   0
498   29656336   0
497   29658036   0
498   29659736   0
497   29661436   0
497   29663136   0
498   29664836   0
497   29666536   0
498   29668236   0
498   29669936   0
499   29671636   0
497   29673336   0
498   29675036   0
498   29676736   0
497   29678436   0
497   29680136   0
499   29681836   0
497   29683536   0
496   29685236   0
497   29686936   0
497   29688636   0
497   29690336   0
496   29692036   0
497   29693736   0
498   29695436   0
497   29697136   0
497   29698836   0
499   29700536   0
496   29702236   0
497   29703936   0
497   29705636   0
497   29707336   0
497   29709036   0
498   29710736   0
497   29712436   0
496   29714136   0
497   29715836   0
497   29717536   0
497   29719236   0
497   29720936   0
497   29722640   0
497   29724336   0
497   29726036   0
497   29727736   0
497   29729436   0
497   29731136   0
497   29732836   0
498   29734536   0
497   29736236   0
498   29737936   0
499   29739636   0
497   29741336   0
497   29743036   0
497   29744736   0
497   29746436   0
497   29748136   0
498   29749836   0
498   29751536   0
497   29753236   0
497   29754936   0
497   29756636   0
497   29758336   0
497   29760036   0
497   29761736   0
496   29763436   0
497   29765136   0
497   29766836   0
497   29768536   0
497   29770236   0
497   29771936   0
497   29773636   0
499   29775336   0
496   29777036   0
496   29778736   0
498   29780436   0
497   29782136   0
499   29783836   0
497   29785536   0
497   29787236   0
497   29788936   0
497   29790636   0
499   29792336   0
498   29794036   0
499   29795736   0
497   29797436   0
497   29799136   0
498   29800836   0
498   29802536   0
497   29804236   0
499   29805936   0
499   29807636   0
497   29809336   0
497   29811036   0
497   29812740   0
497   29814436   0
497   29816136   0
497   29817836   0
497   29819536   0
498   29821236   0
498   29822936   0
498   29824636   0
498   29826336   0
498   29828036   0
499   29829736   0
498   29831436   0
499   29833136   0
499   29834836   0
498   29836536   0
499   29838236   0
499   29839936   0
500   29841636   0
499   29843336   0
499   29845036   0
497   29846736   0
497   29848436   0
499   29850136   0
499   29851836   0
497   29853536   0
499   29855236   0
498   29856936   0
497   29858636   0
499   29860336   0
499   29862036   0
499   29863736   0
498   29865436   0
499   29867136   0
498   29868836   0
499   29870536   0
497   29872236   0
499   29873936   0
499   29875636   0
498   29877336   0
499   29879036   0
497   29880736   0
499   29882436   0
499   29884136   0
499   29885836   0
498   29887536   0
499   29889236   0
498   29890936   0
498   29892636   0
499   29894336   0
499   29896036   0
497   29897740   0
499   29899436   0
498   29901136   0
499   29902836   0
499   29904536   0
499   29906236   0
499   29907936   0
499   29909636   0
499   29911336   0
498   29913036   0
499   29914736   0
499   29916436   0
499   29918136   0
499   29919836   0
498   29921536   0
499   29923236   0
499   29924936   0
499   29926636   0
499   29928336   0
499   29930036   0
499   29931736   0
499   29933436   0
499   29935136   0
499   29936836   0
499   29938536   0
498   29940236   0
503   29941936   0
499   29943636   0
498   29945336   0
498   29947036   0
498   29948736   0
499   29950436   0
498   29952136   0
499   29953836   0
499   29955536   0
499   29957236   0
499   29958936   0
499   29960636   0
499   29962336   0
498   29964036   0
498   29965736   0
499   29967436   0
498   29969136   0
499   29970836   0
499   29972536   0
499   29974236   0
498   29975936   0
499   29977636   0
499   29979336   0
499   29981036   0
499   29982736   0
498   29984436   0
499   29986136   0
499   29987836   0
499   29989536   0
499   29991236   0
499   29992936   0
499   29994636   0
498   29996336   0
499   29998036   0
499   29999736   0
499   30001436   0
499   30003136   0
499   30004836   0
499   30006536   0
498   30008236   0
499   30009936   0
499   30011636   0
499   30013336   0
499   30015036   0
499   30016736   0
499   30018436   0
498   30020136   0
499   30021836   0
500   30023536   0
499   30025236   0
499   30026936   0
498   30028636   0
499   30030336   0
498   30032036   0
499   30033736   0
499   30035436   0
499   30037136   0
499   30038836   0
498   30040536   0
499   30042236   0
500   30043936   0
499   30045636   0
499   30047336   0
499   30049036   0
499   30050736   0
498   30052436   0
499   30054136   0
499   30055836   0
498   30057536   0
499   30059236   0
499   30060936   0
499   30062636   0
498   30064336   0
499   30066036   0
499   30067736   0
498   30069436   0
499   30071136   0
499   30072840   0
499   30074536   0
499   30076236   0
498   30077936   0
497   30079636   0
499   30081336   0
499   30083036   0
498   30084736   0
499   30086436   0
498   30088136   0
499   30089836   0
498   30091536   0
498   30093236   0
499   30094936   0
498   30096636   0
498   30098336   0
497   30100036   0
498   30101736   0
498   30103436   0
498   30105136   0
498   30106836   0
497   30108536   0
499   30110236   0
497   30111936   0
498   30113636   0
499   30115336   0
497   30117036   0
497   30118736   0
497   30120436   0
498   30122136   0
498   30123836   0
496   30125536   0
497   30127236   0
498   30128936   0
498   30130636   0
499   30132336   0
497   30134036   0
498   30135736   0
498   30137436   0
498   30139136   0
498   30140836   0
497   30142536   0
499   30144236   0
499   30145936   0
499   30147636   0
498   30149336   0
498   30151036   0
497   30152736   0
497   30154436   0
497   30156136   0
499   30157840   0
498   30159536   0
497   30161236   0
498   30162936   0
497   30164636   0
499   30166336   0
498   30168036   0
497   30169736   0
498   30171436   0
498   30173136   0
498   30174836   0
497   30176536   0
496   30178236   0
497   30179936   0
497   30181636   0
497   30183336   0
497   30185036   0
497   30186736   0
498   30188436   0
497   30190136   0
499   30191836   0
498   30193536   0
498   30195236   0
497   30196936   0
497   30198636   0
497   30200336   0
499   30202036   0
497   30203736   0
496   30205436   0
497   30207136   0
496   30208836   0
498   30210536   0
497   30212236   0
498   30213936   0
497   30215636   0
499   30217336   0
498   30219036   0
497   30220736   0
499   30222436   0
497   30224136   0
497   30225836   0
497   30227536   0
497   30229236   0
497   30230936   0
497   30232636   0
497   30234336   0
497   30236036   0
497   30237736   0
497   30239436   0
497   30241136   0
497   30242836   0
499   30244536   0
499   30246236   0
496   30247936   0
497   30249636   0
497   30251336   0
498   30253036   0
497   30254736   0
497   30256436   0
496   30258136   0
496   30259836   0
498   30261536   0
497   30263236   0
496   30264936   0
497   30266636   0
