EMGValue   Timestamp   TrueFlexState
187   5906348   0
187   5926108   0
186   5945868   0
185   5965628   0
184   5985388   0
183   6005148   0
181   6024908   0
180   6044668   0
179   6064428   0
180   6084188   0
179   6103948   0
180   6123708   0
179   6143468   0
179   6163228   0
180   6182988   0
179   6202748   0
180   6222508   0
180   6242268   0
179   6262028   0
178   6281788   0
177   6301548   0
176   6321308   0
176   6341068   0
174   6360828   0
174   6380588   0
175   6400348   0
176   6420108   0
175   6439868   0
176   6459628   0
176   6479388   0
177   6499148   0
178   6518908   0
177   6538668   0
178   6558428   0
177   6578192   0
177   6597948   0
176   6617708   0
176   6637468   0
176   6657228   0
175   6676988   0
175   6696748   0
175   6716508   0
174   6736268   0
174   6756028   0
174   6775788   0
175   6795548   0
175   6815308   0
176   6835068   0
176   6854828   0
177   6874588   0
176   6894348   0
177   6914108   0
176   6933868   0
176   6953628   0
175   6973388   0
174   6993148   0
173   7012908   0
172   7032668   0
172   7052428   0
172   7072188   0
172   7091948   0
172   7111708   0
173   7131468   0
173   7151228   0
174   7170988   0
174   7190748   0
175   7210508   0
174   7230268   0
174   7250028   0
173   7269788   0
172   7289548   0
171   7309308   0
167   7329068   0
167   7348828   0
167   7368588   0
166   7388348   0
166   7408108   0
166   7427868   0
167   7447628   0
167   7467388   0
167   7487148   0
96   7505868   0
39   7524588   0
8   7542268   0
0   7559948   0
0   7577628   0
0   7595308   0
0   7612988   0
0   7630668   0
3   7648348   0
8   7666028   0
12   7684748   0
15   7703468   0
19   7722188   0
22   7740908   0
27   7759628   0
30   7778348   0
33   7797068   0
35   7815788   0
39   7834508   0
43   7853228   0
44   7871948   0
48   7890668   0
51   7909392   0
54   7928108   0
56   7946828   0
58   7965548   0
60   7984268   0
63   8002988   0
64   8021708   0
66   8040428   0
67   8059148   0
70   8077868   0
71   8096588   0
73   8115308   0
75   8134028   0
76   8152748   0
78   8171468   0
79   8190188   0
80   8208908   0
84   8227628   0
86   8246348   0
90   8265068   0
94   8283788   0
96   8302508   0
100   8322268   0
103   8342028   0
105   8361788   0
108   8381548   0
110   8401308   0
112   8421068   0
114   8440828   0
115   8460588   0
115   8480348   0
118   8500108   0
119   8519868   0
120   8539628   0
120   8559388   0
120   8579148   0
120   8598908   0
122   8618668   0
123   8638428   0
126   8658188   0
129   8677948   0
133   8697708   0
135   8717468   0
139   8737228   0
141   8756988   0
143   8776748   0
145   8796508   0
147   8816268   0
149   8836028   0
150   8855788   0
150   8875548   0
152   8895308   0
152   8915068   0
154   8934828   0
155   8954588   0
155   8974352   0
156   8994108   0
156   9013868   0
156   9033628   0
158   9053388   0
159   9073148   0
159   9092908   0
159   9112668   0
160   9132428   0
161   9152188   0
162   9171948   0
163   9191708   0
163   9211468   0
164   9231228   0
166   9250988   0
167   9270748   0
167   9290508   0
166   9310268   0
167   9330028   0
166   9349788   0
167   9369548   0
167   9389308   0
167   9409068   0
167   9428828   0
167   9448588   0
167   9468348   0
166   9488108   0
167   9507868   0
167   9527628   0
167   9547388   0
168   9567148   0
169   9586908   0
169   9606668   0
171   9626428   0
172   9646188   0
172   9665948   0
173   9685708   0
173   9705468   0
172   9725228   0
172   9744988   0
172   9764748   0
172   9784508   0
172   9804268   0
172   9824028   0
172   9843788   0
171   9863548   0
171   9883308   0
171   9903068   0
172   9922828   0
172   9942588   0
173   9962348   0
174   9982108   0
174   10001868   0
174   10022668   0
175   10043468   0
176   10064268   0
176   10085068   0
176   10105872   0
176   10126668   0
175   10147468   0
176   10168268   0
175   10189068   0
175   10209868   0
174   10230668   0
174   10251468   0
172   10272268   0
172   10293068   0
174   10313868   0
174   10334668   0
175   10355468   0
177   10376268   0
177   10397068   0
178   10417868   0
178   10438672   0
179   10459468   0
181   10480268   0
180   10501068   0
180   10521868   0
179   10542668   0
179   10563468   0
178   10584268   0
177   10605068   0
176   10625868   0
175   10646668   0
174   10667468   0
173   10688268   0
172   10709068   0
172   10729868   0
172   10750668   0
173   10771472   0
174   10792268   0
174   10813068   0
175   10833868   0
175   10854668   0
175   10875468   0
175   10896268   0
175   10917068   0
175   10937868   0
176   10958668   0
176   10979468   0
176   11000268   0
175   11021068   0
173   11041868   0
171   11062668   0
169   11083468   0
168   11104272   0
167   11125068   0
166   11145868   0
167   11166668   0
167   11187468   0
169   11208268   0
171   11229068   0
173   11249868   0
175   11270668   0
177   11291468   0
179   11312268   0
180   11333068   0
179   11353868   0
178   11374668   0
177   11395468   0
176   11416268   0
176   11437072   0
174   11457868   0
174   11478668   0
173   11499468   0
173   11520268   0
174   11541068   0
172   11561868   0
174   11582668   0
173   11603468   0
174   11624268   0
176   11645068   0
177   11665868   0
179   11686668   0
179   11707468   0
182   11728268   0
182   11749068   0
182   11769872   0
183   11790668   0
183   11811468   0
184   11832268   0
184   11853068   0
184   11873868   0
184   11894668   0
183   11915468   0
183   11936268   0
182   11957068   0
181   11977868   0
181   11998668   0
181   12019468   0
180   12040268   0
182   12061068   0
183   12081868   0
185   12102672   0
185   12123468   0
185   12144268   0
187   12165068   0
186   12185868   0
187   12206668   0
187   12227468   0
187   12248268   0
188   12269068   0
189   12289868   0
190   12310668   0
192   12331468   0
193   12352268   0
193   12373068   0
193   12393868   0
192   12414668   0
192   12435472   0
193   12456268   0
193   12477068   0
194   12497868   0
195   12518668   0
195   12539468   0
192   12560268   0
191   12581068   0
188   12601868   0
189   12622668   0
190   12643468   0
190   12664268   0
192   12685068   0
193   12705868   0
193   12726668   0
195   12747468   0
194   12768272   0
195   12789068   0
194   12809868   0
193   12830668   0
192   12851468   0
192   12872268   0
191   12893068   0
191   12913868   0
190   12934668   0
190   12955468   0
188   12976268   0
188   12997068   0
188   13017868   0
188   13038668   0
189   13059468   0
190   13080268   0
189   13101072   0
189   13121868   0
188   13142668   0
188   13163468   0
188   13184268   0
187   13205068   0
186   13225868   0
185   13246668   0
184   13267468   0
183   13288268   0
182   13309068   0
182   13329868   0
180   13350668   0
179   13371468   0
179   13392268   0
179   13413068   0
178   13433872   0
178   13454668   0
177   13475468   0
178   13496268   0
178   13517068   0
179   13537868   0
180   13558668   0
179   13579468   0
180   13600268   0
180   13621068   0
181   13641868   0
180   13662668   0
180   13683468   0
180   13704268   0
180   13725068   0
181   13745868   0
181   13766672   0
181   13787468   0
180   13808268   0
179   13829068   0
180   13849868   0
179   13870668   0
178   13891468   0
178   13912268   0
178   13933068   0
179   13953868   0
179   13974668   0
179   13995468   0
179   14016268   0
179   14037068   0
178   14057868   0
178   14078668   0
177   14099472   0
177   14120268   0
177   14141068   0
177   14161868   0
177   14182668   0
177   14203468   0
176   14224268   0
176   14245068   0
176   14265868   0
176   14286668   0
176   14307468   0
176   14328268   0
176   14349068   0
176   14369868   0
175   14390668   0
174   14411468   0
175   14432272   0
174   14453068   0
174   14473868   0
174   14494668   0
174   14515468   0
174   14536268   0
173   14557068   0
174   14577868   0
173   14598668   0
174   14619468   0
174   14640268   0
174   14661068   0
174   14681868   0
173   14702   0
176   15867468   0
176   15888268   0
176   15909068   0
176   15929868   0
176   15950668   0
176   15971468   0
175   15992268   0
175   16013068   0
175   16033868   0
175   16054668   0
175   16075468   0
175   16096272   0
175   16117068   0
175   16137868   0
175   16158668   0
175   16179468   0
174   16200268   0
174   16221068   0
173   16241868   0
174   16262668   0
173   16283468   0
173   16304268   0
174   16325068   0
174   16345868   0
174   16366668   0
175   16387468   0
175   16408268   0
175   16429072   0
175   16449868   0
176   16470668   0
176   16491468   0
176   16512268   0
177   16533068   0
178   16553868   0
178   16574668   0
178   16595468   0
178   16616268   0
177   16637068   0
176   16657868   0
175   16678668   0
173   16699468   0
172   16720268   0
169   16741068   0
166   16761872   0
163   16782668   0
161   16803468   0
160   16824268   0
163   16845068   0
167   16865868   0
172   16886668   0
176   16907468   0
179   16928268   0
182   16949068   0
184   16969868   0
184   16990668   0
184   17011468   0
183   17032268   0
183   17053068   0
182   17073868   0
179   17094672   0
178   17115468   0
176   17136268   0
172   17157068   0
167   17177868   0
161   17198668   0
151   17219468   0
139   17240268   0
127   17261068   0
118   17281868   0
110   17302668   0
105   17323468   0
101   17344268   0
99   17364028   0
103   17384828   0
115   17405628   0
121   17426428   0
128   17447228   0
134   17468028   0
137   17488828   0
140   17509628   0
138   17530428   0
135   17551228   0
127   17572028   0
119   17592828   0
105   17613628   0
87   17633388   0
71   17653148   0
60   17672908   0
54   17692668   0
49   17712428   0
48   17732188   0
46   17751948   0
46   17771708   0
43   17791468   0
40   17811228   0
38   17830988   0
35   17850748   0
37   17870508   0
40   17890268   0
48   17910028   0
53   17929788   0
55   17949548   0
55   17969308   0
60   17989068   0
63   18008828   0
63   18028588   0
63   18048348   0
66   18068108   0
66   18087868   0
66   18107628   0
66   18127388   0
66   18147148   0
67   18166908   0
69   18186668   0
72   18206428   0
77   18226192   0
79   18245948   0
82   18265708   0
83   18285468   0
85   18305228   0
87   18324988   0
88   18344748   0
89   18364508   0
91   18384268   0
92   18404028   0
94   18423788   0
94   18443548   0
94   18463308   0
93   18483068   0
88   18502828   0
88   18522588   0
89   18542348   0
89   18562108   0
88   18581868   0
89   18601628   0
89   18621388   0
89   18641148   0
91   18660908   0
92   18680668   0
92   18700428   0
94   18720188   0
95   18739948   0
97   18759708   0
98   18779468   0
99   18799228   0
100   18820028   0
102   18840828   0
102   18861628   0
103   18882428   0
105   18903228   0
107   18924028   0
108   18944828   0
110   18965628   0
110   18986428   0
112   19007228   0
113   19028028   0
115   19048828   0
117   19069628   0
119   19090428   0
120   19111228   0
121   19132028   0
122   19152828   0
121   19173628   0
121   19194428   0
124   19215228   0
126   19236028   0
129   19256828   0
129   19277628   0
129   19298428   0
130   19319228   0
131   19340028   0
133   19360828   0
135   19381628   0
137   19402428   0
137   19423228   0
137   19444028   0
139   19464828   0
139   19485628   0
140   19506428   0
140   19527228   0
141   19548028   0
142   19568828   0
142   19589628   0
141   19610428   0
139   19631228   0
135   19652028   0
135   19672828   0
135   19693628   0
135   19714428   0
134   19735228   0
133   19756028   0
133   19776828   0
132   19797628   0
133   19818428   0
135   19839228   0
135   19860028   0
135   19880828   0
135   19901628   0
135   19922428   0
137   19943228   0
139   19964028   0
140   19984828   0
140   20005628   0
141   20026428   0
142   20047228   0
143   20068028   0
147   20088828   0
151   20109628   0
150   20130428   0
152   20151228   0
152   20172028   0
153   20192828   0
153   20213628   0
155   20234428   0
156   20255228   0
156   20276028   0
158   20296828   0
158   20317628   1
158   20338428   1
157   20359228   1
158   20380028   1
157   20400828   1
157   20421628   1
157   20442428   1
156   20463228   1
156   20484028   1
155   20504828   1
153   20525628   1
154   20546428   1
153   20567228   1
153   20588028   1
154   20608828   1
153   20629628   1
155   20650428   1
156   20671228   1
156   20692028   1
154   20712828   1
151   20733628   1
157   20754428   1
158   20775228   1
162   20796028   1
165   20816828   1
167   20837628   1
169   20858428   1
171   20879228   1
172   20900028   1
173   20920828   1
174   20941628   1
175   20962428   1
176   20983228   1
176   21004028   1
176   21024828   1
176   21045628   1
176   21066428   1
176   21087228   1
176   21108028   1
176   21128828   1
175   21149628   1
176   21170428   1
175   21191228   1
176   21212028   1
176   21232828   1
176   21253628   1
177   21274428   1
177   21295228   1
179   21316028   1
182   21336828   1
183   21357628   1
184   21378428   1
184   21399228   1
184   21420028   1
183   21440828   1
182   21461628   1
180   21482428   1
179   21503228   1
179   21524028   1
178   21544828   1
179   21565628   1
178   21586428   1
177   21607228   1
177   21628028   1
178   21648828   1
178   21669628   1
177   21690428   1
176   21711228   1
177   21732028   1
176   21752828   1
175   21773628   1
175   21794428   1
172   21815228   1
171   21836028   1
169   21856828   1
167   21877628   1
167   21898428   1
166   21919228   1
164   21940028   1
164   21960828   1
163   21981628   1
163   22002428   1
163   22023228   1
161   22044028   1
161   22064828   1
159   22085628   1
159   22106428   1
158   22127228   1
156   22148028   1
155   22168828   1
153   22189628   1
152   22210428   1
151   22231228   1
148   22252028   1
145   22272828   1
143   22293628   1
142   22314428   1
142   22335228   1
140   22356028   1
139   22376828   1
137   22397628   1
135   22418428   1
134   22439228   1
133   22460028   1
131   22480828   1
131   22501628   1
129   22522428   1
128   22543228   1
127   22564028   1
126   22584828   1
127   22605628   1
126   22626428   1
126   22647228   1
126   22668028   1
125   22688828   1
125   22709628   1
125   22730428   1
124   22751228   1
124   22772028   1
123   22792828   1
123   22813628   1
123   22834428   1
121   22855228   1
121   22876028   1
120   22896828   1
120   22917628   1
119   22938428   1
119   22959228   1
118   22980028   1
116   23000828   1
116   23021628   1
115   23042428   1
113   23063228   1
112   23084028   1
110   23104828   1
108   23125628   1
105   23146428   1
104   23167228   1
103   23188028   1
100   23208828   1
99   23228588   1
97   23248348   1
97   23268108   1
96   23287868   1
96   23307628   1
96   23327388   1
96   23347148   1
96   23366908   1
96   23386668   1
96   23406428   1
95   23426188   1
96   23445948   1
96   23465708   1
95   23485468   1
95   23505228   1
94   23524988   1
93   23544748   1
93   23564508   1
92   23584268   1
92   23604028   1
91   23623788   1
89   23643548   1
89   23663308   1
88   23683068   1
87   23702828   1
86   23722588   1
83   23742348   1
83   23762108   1
81   23781868   1
81   23801628   1
80   23821388   1
79   23841148   1
78   23860908   1
78   23880668   1
79   23900428   1
79   23920188   1
79   23939948   1
80   23959708   1
81   23979468   1
81   23999228   1
81   24018988   1
81   24038748   1
81   24058508   1
81   24078268   1
82   24098028   1
83   24117788   1
83   24137548   1
83   24157308   1
83   24177068   1
83   24196828   1
83   24216592   1
83   24236348   1
83   24256108   1
82   24275868   1
82   24295628   1
81   24315388   1
81   24335148   1
81   24354908   1
79   24374668   1
81   24394428   0
80   24414188   0
81   24433948   0
79   24453708   0
76   24473468   0
73   24493228   0
74   24512988   0
73   24532748   0
71   24552508   0
71   24572268   0
73   24592028   0
74   24611788   0
76   24631548   0
77   24651308   0
79   24671068   0
83   24690828   0
83   24710588   0
84   24730348   0
85   24750108   0
87   24769868   0
88   24789628   0
89   24809388   0
90   24829148   0
95   24848908   0
97   24868668   0
101   24889468   0
107   24910268   0
109   24931068   0
103   24951868   0
100   24972668   0
99   24992428   0
99   25012188   0
99   25031948   0
99   25051708   0
100   25072508   0
101   25093308   0
102   25114108   0
103   25134908   0
104   25155708   0
106   25176508   0
107   25197308   0
108   25218108   0
110   25238908   0
109   25259708   0
110   25280508   0
111   25301308   0
111   25322108   0
111   25342908   0
112   25363708   0
112   25384508   0
114   25405308   0
115   25426108   0
116   25446908   0
117   25467708   0
118   25488508   0
118   25509308   0
119   25530108   0
120   25550908   0
120   25571708   0
121   25592508   0
120   25613308   0
120   25634108   0
120   25654908   0
120   25675708   0
120   25696508   0
120   25717308   0
120   25738108   0
120   25758908   0
120   25779708   0
123   25800508   0
124   25821308   0
124   25842108   0
124   25862908   0
124   25883708   0
126   25904508   0
126   25925308   0
125   25946108   0
125   25966908   0
125   25987708   0
124   26008508   0
124   26029308   0
124   26050108   0
125   26070908   0
126   26091708   0
127   26112508   0
129   26133308   0
131   26154108   0
133   26174908   0
134   26195708   0
134   26216508   0
135   26237308   0
135   26258108   0
135   26278908   0
134   26299708   0
134   26320508   0
131   26341308   0
130   26362108   0
129   26382908   0
127   26403708   0
125   26424508   0
123   26445308   0
120   26466108   0
115   26486908   0
110   26507708   0
103   26528508   0
96   26548268   0
91   26568028   0
86   26587788   0
81   26607548   0
79   26627308   0
78   26647068   0
79   26666828   0
82   26686588   0
87   26706348   0
94   26726108   0
101   26746908   0
106   26767708   0
109   26788508   0
113   26809308   0
115   26830108   0
118   26850908   0
120   26871708   0
122   26892508   0
124   26913308   0
127   26934108   0
129   26954908   0
131   26975708   0
134   26996508   0
134   27017308   0
135   27038108   0
134   27058908   0
134   27079708   0
132   27100508   0
131   27121308   0
131   27142108   0
129   27162908   0
130   27183708   0
129   27204508   0
127   27225308   0
126   27246108   0
125   27266908   0
125   27287708   0
124   27308508   0
124   27329308   0
125   27350108   0
126   27370908   0
126   27391708   0
127   27412508   0
126   27433308   0
127   27454108   0
126   27474908   0
125   27495708   0
123   27516508   0
121   27537308   0
119   27558108   0
113   27578908   0
106   27599708   0
98   27619468   0
89   27639228   0
82   27658988   0
75   27678748   0
71   27698508   0
68   27718268   0
67   27738028   0
67   27757788   0
67   27777548   0
67   27797308   0
68   27817068   0
68   27836828   0
67   27856588   0
64   27876348   0
63   27896108   0
62   27915868   0
61   27935628   0
60   27955388   0
60   27975148   0
62   27994908   0
62   28014668   0
62   28034428   0
62   28054188   0
62   28073948   0
61   28093708   0
61   28113468   0
62   28133228   0
62   28152988   0
62   28172748   0
63   28192508   0
63   28212268   0
65   28232028   0
66   28251788   0
67   28271548   0
67   28291308   0
70   28311068   0
71   28330828   0
71   28350588   0
73   28370348   0
72   28390108   0
72   28409872   0
73   28429628   0
75   28449388   0
77   28469148   0
79   28488908   0
79   28508668   0
80   28528428   0
81   28548188   0
82   28567948   0
83   28587708   0
86   28607468   0
88   28627228   0
92   28646988   0
96   28666748   0
101   28687548   0
105   28708348   0
111   28729148   0
115   28749948   0
120   28770748   0
125   28791548   0
127   28812348   0
130   28833148   0
133   28853948   0
133   28874748   0
134   28895548   0
133   28916348   0
131   28937148   0
125   28957948   0
114   28978748   0
100   28999548   0
89   29019308   0
81   29039068   0
76   29058828   0
71   29078588   0
71   29098348   0
69   29118108   0
71   29137868   0
77   29157628   0
83   29177388   0
85   29197148   0
89   29216908   0
91   29236668   0
91   29256428   0
92   29276188   0
92   29295948   0
94   29315708   0
96   29335468   0
96   29355228   0
96   29374988   0
96   29394748   0
98   29414508   0
99   29434268   0
99   29454028   0
99   29473788   0
97   29493548   0
97   29513308   0
97   29533068   0
97   29552828   0
97   29572588   0
98   29592348   0
99   29612108   0
100   29632908   0
102   29653708   0
103   29674512   0
104   29695308   0
105   29716108   0
106   29736908   0
107   29757708   0
108   29778508   0
109   29799308   0
110   29820108   0
112   29840908   0
113   29861708   0
115   29882508   0
117   29903308   0
120   29924108   0
122   29944908   0
123   29965708   0
125   29986508   0
126   30007312   0
128   30028108   0
129   30048908   0
131   30069708   0
132   30090508   0
135   30111308   0
140   30132108   0
142   30152908   0
144   30173708   0
147   30194508   0
149   30215308   0
151   30236108   0
152   30256908   0
152   30277708   0
151   30298508   0
150   30319308   0
150   30340112   0
148   30360908   0
146   30381708   0
143   30402508   0
142   30423308   0
140   30444108   0
138   30464908   0
136   30485708   0
137   30506508   0
137   30527308   0
137   30548108   0
139   30568908   0
140   30589708   0
143   30610508   0
144   30631308   0
146   30652108   0
147   30672912   0
149   30693708   0
149   30714508   0
148   30735308   0
150   30756108   0
149   30776908   0
148   30797708   0
147   30818508   0
147   30839308   0
147   30860108   0
148   30880908   0
147   30901708   0
149   30922508   0
150   30943308   0
151   30964108   0
152   30984908   0
152   31005712   0
155   31026508   0
157   31047308   0
160   31068108   0
163   31088908   0
166   31109708   0
167   31130508   0
167   31151308   0
167   31172108   0
167   31192908   0
167   31213708   0
166   31234508   0
166   31255308   0
164   31276108   0
163   31296908   0
162   31317708   0
163   31338512   0
161   31359308   0
161   31380108   0
161   31400908   0
161   31421708   0
159   31442508   0
158   31463308   0
155   31484108   0
153   31504908   0
152   31525708   0
150   31546508   0
151   31567308   0
152   31588108   0
153   31608908   0
155   31629708   0
159   31650508   0
163   31671312   0
169   31692108   0
176   31712908   0
182   31733708   0
189   31754508   0
192   31775308   0
192   31796108   0
190   31816908   0
191   31837708   0
192   31858508   0
194   31879308   0
195   31900108   0
197   31920908   0
196   31941708   0
197   31962508   0
198   31983308   0
199   32004112   0
199   32024908   0
199   32045708   0
199   32066508   0
201   32087308   0
203   32108108   0
204   32128908   0
206   32149708   0
208   32170508   0
211   32191308   0
213   32212108   0
214   32232908   0
215   32253708   0
217   32274508   0
217   32295308   0
219   32316108   0
218   32336912   0
218   32357708   0
218   32378508   0
217   32399308   0
216   32420108   0
216   32440908   0
216   32461708   0
216   32482508   0
215   32503308   0
215   32524108   0
215   32544908   0
217   32565708   0
220   32586508   0
221   32607308   0
222   32628108   0
223   32648908   0
223   32669712   0
222   32690508   0
221   32711308   0
220   32732108   0
219   32752908   0
216   32773708   0
212   32794508   0
209   32815308   0
207   32836108   0
204   32856908   0
201   32877708   0
198   32898508   0
196   32919308   0
195   32940108   0
195   32960908   0
195   32981708   0
195   33002512   0
195   33023308   0
195   33044108   0
195   33064908   0
195   33085708   0
195   33106508   0
195   33127308   0
194   33148108   0
193   33168908   0
192   33189708   0
192   33210508   0
192   33231308   0
191   33252108   0
191   33272908   0
191   33293708   0
192   33314508   0
192   33335312   0
192   33356108   0
192   33376908   0
192   33397708   0
191   33418508   0
192   33439308   0
190   33460108   0
190   33480908   0
190   33501708   0
190   33522508   0
190   33543308   0
188   33564108   0
188   33584908   0
188   33605708   0
187   33626508   0
188   33647308   0
187   33668112   0
188   33688908   0
188   33709708   0
188   33730508   0
188   33751308   0
188   33772108   0
187   33792908   0
186   33813708   0
185   33834508   0
184   33855308   0
184   33876108   0
184   33896908   0
183   33917708   0
183   33938508   0
183   33959308   0
182   33980108   0
182   34000912   0
182   34021708   0
182   34042508   0
183   34063308   0
183   34084108   0
184   34104908   0
184   34125708   0
183   34146508   0
182   34167308   0
182   34188108   0
182   34208908   0
182   34229708   0
180   34250508   0
179   34271308   0
178   34292108   0
176   34312908   0
174   34333712   0
171   34354508   0
169   34375308   0
167   34396108   0
167   34416908   0
166   34437708   0
166   34458508   0
166   34479308   0
167   34500108   0
167   34520908   0
167   34541708   0
168   34562508   0
169   34583308   0
169   34604108   0
167   34624908   0
167   34645708   0
167   34666512   0
166   34687308   0
166   34708108   0
166   34728908   0
166   34749708   0
166   34770508   0
167   34791308   0
167   34812108   0
167   34832908   0
167   34853708   0
167   34874508   0
167   34895308   0
167   34916108   0
167   34936908   0
167   34957708   0
169   34978508   0
170   34999312   0
172   35020108   0
173   35040908   0
174   35061708   0
175   35082508   0
176   35103308   0
176   35124108   0
176   35144908   0
176   35165708   0
176   35186508   0
175   35207308   0
174   35228108   0
172   35248908   0
170   35269708   0
168   35290508   0
167   35311308   0
166   35332112   0
166   35352908   0
166   35373708   0
167   35394508   0
221   35415308   0
242   35436108   0
254   35456908   0
255   35477708   0
253   35498508   0
252   35519308   0
251   35540108   0
248   35560908   0
247   35581708   0
246   35602508   0
244   35623308   0
243   35644108   0
241   35664912   0
240   35685708   0
239   35706508   0
237   35727308   0
236   35748108   0
235   35768908   0
233   35789708   0
231   35810508   0
231   35831308   0
229   35852108   0
227   35872908   0
224   35893708   0
220   35914508   0
217   35935308   0
211   35956108   0
211   35976908   0
208   35997712   0
207   36018508   0
205   36039308   0
205   36060108   0
203   36080908   0
199   36101708   0
196   36122508   0
193   36143308   0
190   36164108   0
187   36184908   0
184   36205708   0
181   36226508   0
178   36247308   0
176   36268108   0
176   36288908   0
176   36309708   0
177   36330512   0
178   36351308   0
179   36372108   0
181   36392908   0
183   36413708   0
184   36434508   0
186   36455308   0
188   36476108   0
188   36496908   0
188   36517708   0
187   36538508   0
186   36559308   0
185   36580108   0
185   36600908   0
184   36621708   0
184   36642508   0
182   36663312   0
180   36684108   0
179   36704908   0
177   36725708   0
176   36746508   0
174   36767308   0
172   36788108   0
169   36808908   0
167   36829708   0
166   36850508   0
165   36871308   0
165   36892108   0
164   36912908   0
164   36933708   0
163   36954508   0
163   36975308   0
162   36996112   0
162   37016908   0
161   37037708   0
160   37058508   0
160   37079308   0
159   37100108   0
158   37120908   0
156   37141708   0
154   37162508   0
152   37183308   0
152   37204108   0
150   37224908   0
151   37245708   0
150   37266508   0
151   37287308   0
152   37308108   0
153   37328912   0
155   37349708   0
155   37370508   0
156   37391308   0
157   37412108   0
158   37432908   0
157   37453708   0
157   37474508   0
156   37495308   0
153   37516108   0
152   37536908   0
148   37557708   0
150   37578508   0
150   37599308   0
150   37620108   0
152   37640908   0
154   37661712   0
155   37682508   0
156   37703308   0
157   37724108   0
157   37744908   0
157   37765708   0
156   37786508   0
156   37807308   0
156   37828108   0
156   37848908   0
155   37869708   0
153   37890508   0
153   37911308   0
152   37932108   0
151   37952908   0
152   37973708   0
152   37994512   0
153   38015308   0
153   38036108   0
153   38056908   0
151   38077708   0
152   38098508   0
151   38119308   0
150   38140108   0
149   38160908   0
149   38181708   0
148   38202508   0
147   38223308   0
147   38244108   0
144   38264908   0
143   38285708   0
139   38306508   0
134   38327312   0
126   38348108   0
119   38368908   0
105   38389708   0
94   38409468   0
93   38429228   0
94   38448988   0
97   38468748   0
101   38489548   0
108   38510348   0
113   38531148   0
120   38551948   0
127   38572748   0
133   38593552   0
137   38614348   0
142   38635148   0
148   38655948   0
159   38676748   0
172   38697548   0
184   38718348   0
193   38739148   0
203   38759948   0
209   38780748   0
218   38801548   0
229   38822348   0
235   38843148   0
233   38863948   0
230   38884748   0
228   38905548   0
228   38926352   0
226   38947148   0
227   38967948   0
227   38988748   0
226   39009548   0
226   39030348   0
225   39051148   0
223   39071948   0
220   39092748   0
219   39113548   0
217   39134348   0
214   39155148   0
212   39175948   0
211   39196748   0
209   39217548   0
207   39238348   0
204   39259152   0
199   39279948   0
195   39300748   0
188   39321548   0
183   39342348   0
181   39363148   0
180   39383948   0
181   39404748   0
181   39425548   0
180   39446348   0
178   39467148   0
174   39487948   0
169   39508748   0
166   39529548   0
161   39550348   0
157   39571148   0
152   39591952   0
148   39612748   0
145   39633548   0
143   39654348   0
142   39675148   0
143   39695948   0
145   39716748   0
148   39737548   0
152   39758348   0
156   39779148   0
156   39799948   0
155   39820748   0
152   39841548   0
152   39862348   0
150   39883148   0
148   39903948   0
147   39924752   0
145   39945548   0
143   39966348   0
142   39987148   0
140   40007948   0
139   40028748   0
139   40049548   0
138   40070348   0
139   40091148   0
139   40111948   0
139   40132748   0
139   40153548   0
140   40174348   0
140   40195148   0
140   40215948   0
141   40236748   0
140   40257552   0
140   40278348   0
140   40299148   0
140   40319948   0
140   40340748   0
140   40361548   0
139   40382348   0
139   40403148   0
137   40423948   0
136   40444748   0
135   40465548   0
135   40486348   0
135   40507148   0
135   40527948   0
137   40548748   0
138   40569548   0
140   40590352   0
143   40611148   0
143   40631948   0
143   40652748   0
143   40673548   0
144   40694348   0
143   40715148   0
143   40735948   0
143   40756748   0
143   40777548   0
143   40798348   0
143   40819148   0
143   40839948   0
143   40860748   0
142   40881548   0
141   40902348   0
140   40923152   0
139   40943948   0
137   40964748   0
135   40985548   0
134   41006348   0
131   41027148   0
131   41047948   0
129   41068748   0
129   41089548   0
129   41110348   0
129   41131148   0
128   41151948   0
129   41172748   0
129   41193548   0
128   41214348   0
128   41235148   0
129   41255952   0
129   41276748   0
127   41297548   0
128   41318348   0
129   41339148   0
129   41359948   0
131   41380748   0
132   41401548   0
135   41422348   0
135   41443148   0
139   41463948   0
139   41484748   0
141   41505548   0
142   41526348   0
142   41547148   0
142   41567948   0
142   41588752   0
143   41609548   0
144   41630348   0
145   41651148   0
147   41671948   0
149   41692748   0
152   41713548   0
152   41734348   0
152   41755148   0
152   41775948   0
152   41796748   0
150   41817548   0
147   41838348   1
142   41859148   1
140   41879948   1
138   41900748   1
136   41921552   1
135   41942348   1
135   41963148   1
135   41983948   1
135   42004748   1
136   42025548   1
137   42046348   1
137   42067148   1
139   42087948   1
140   42108748   1
142   42129548   1
143   42150348   1
147   42171148   1
147   42191948   1
147   42212748   1
147   42233548   1
148   42254352   1
150   42275148   1
152   42295948   1
155   42316748   1
156   42337548   1
158   42358348   1
158   42379148   1
158   42399948   1
158   42420748   1
159   42441548   1
159   42462348   1
158   42483148   1
158   42503948   1
158   42524748   1
158   42545548   1
157   42566348   1
156   42587152   1
155   42607948   1
154   42628748   1
152   42649548   1
152   42670348   1
150   42691148   1
148   42711948   1
147   42732748   1
145   42753548   1
144   42774348   1
143   42795148   1
142   42815948   1
140   42836748   1
139   42857548   1
138   42878348   1
136   42899148   1
135   42919952   1
134   42940748   1
134   42961548   1
134   42982348   1
133   43003148   1
134   43023948   1
135   43044748   1
135   43065548   1
136   43086348   1
139   43107148   1
140   43127948   1
141   43148748   1
142   43169548   1
142   43190348   1
141   43211148   1
141   43231948   1
140   43252752   1
140   43273548   1
139   43294348   1
137   43315148   1
136   43335948   1
135   43356748   1
132   43377548   1
129   43398348   1
127   43419148   1
124   43439948   1
121   43460748   1
120   43481548   1
118   43502348   1
116   43523148   1
115   43543948   1
115   43564748   1
114   43585552   1
114   43606348   1
114   43627148   1
114   43647948   1
114   43668748   1
114   43689548   1
113   43710348   1
113   43731148   1
112   43751948   1
112   43772748   1
112   43793548   1
112   43814348   1
112   43835148   1
113   43855948   1
113   43876748   1
113   43897548   1
113   43918352   1
115   43939148   1
115   43959948   1
115   43980748   1
116   44001548   1
115   44022348   1
117   44043148   1
116   44063948   1
117   44084748   1
116   44105548   1
116   44126348   1
115   44147148   1
115   44167948   1
116   44188748   1
115   44209548   1
115   44230348   1
114   44251152   1
113   44271948   1
112   44292748   1
111   44313548   1
111   44334348   1
110   44355148   1
110   44375948   1
108   44396748   1
105   44417548   1
104   44438348   1
103   44459148   1
103   44479948   1
103   44500748   1
103   44521548   1
103   44542348   1
105   44563148   1
105   44583952   1
105   44604748   1
105   44625548   1
105   44646348   1
104   44667148   1
104   44687948   1
103   44708748   1
103   44729548   1
103   44750348   1
102   44771148   1
100   44791948   1
100   44812748   1
98   44832508   1
97   44852268   1
96   44872028   1
95   44891788   1
95   44911548   1
94   44931308   1
92   44951068   1
92   44970828   1
92   44990588   1
92   45010348   1
92   45030108   1
92   45049872   1
92   45069628   1
92   45089388   1
93   45109148   1
93   45128908   1
94   45148668   1
95   45168428   1
94   45188188   1
95   45207948   1
96   45227708   1
97   45247468   1
97   45267228   1
98   45286988   1
97   45306748   1
98   45326508   1
99   45346268   1
99   45366028   1
99   45385788   1
99   45405548   1
99   45425308   1
99   45445068   1
99   45464828   1
99   45484588   1
100   45505388   1
100   45526188   1
101   45546988   1
101   45567788   1
101   45588588   1
100   45609388   1
101   45630188   1
100   45650988   1
101   45671788   1
100   45692588   1
100   45713388   1
99   45733148   1
99   45752908   1
99   45772668   1
99   45792428   1
98   45812188   1
98   45831948   1
97   45851708   1
98   45871468   1
97   45891228   1
96   45910988   1
96   45930748   1
96   45950508   1
96   45970268   1
96   45990028   1
95   46009788   1
96   46029548   1
96   46049308   1
95   46069068   1
95   46088828   1
95   46108588   1
95   46128348   1
94   46148108   1
94   46167868   1
94   46187628   1
94   46207388   1
94   46227148   1
94   46246908   1
94   46266668   1
94   46286428   1
94   46306188   1
95   46325948   1
94   46345708   1
95   46365468   1
94   46385228   1
95   46404988   1
94   46424748   1
94   46444508   1
94   46464268   1
93   46484028   1
93   46503788   1
93   46523548   0
94   46543308   0
93   46563068   0
94   46582828   0
92   46602588   0
92   46622348   0
89   46642108   0
89   46661868   0
91   46681628   0
92   46701388   0
91   46721148   0
92   46740908   0
92   46760668   0
91   46780432   0
91   46800188   0
91   46819948   0
89   46839708   0
89   46859468   0
90   46879228   0
89   46898988   0
88   46918748   0
88   46938508   0
88   46958268   0
89   46978028   0
89   46997788   0
91   47017548   0
92   47037308   0
96   47057068   0
96   47076828   0
95   47096588   0
96   47116348   0
96   47136108   0
97   47155868   0
99   47175628   0
101   47196428   0
103   47217228   0
103   47238028   0
107   47258828   0
109   47279628   0
111   47300428   0
111   47321228   0
112   47342028   0
113   47362828   0
115   47383628   0
115   47404428   0
116   47425228   0
118   47446032   0
118   47466828   0
119   47487628   0
119   47508428   0
118   47529228   0
119   47550028   0
118   47570828   0
118   47591628   0
118   47612428   0
118   47633228   0
117   47654028   0
118   47674828   0
120   47695628   0
122   47716428   0
127   47737228   0
137   47758028   0
137   47778832   0
140   47799628   0
138   47820428   0
136   47841228   0
135   47862028   0
134   47882828   0
132   47903628   0
134   47924428   0
136   47945228   0
137   47966028   0
137   47986828   0
139   48007628   0
136   48028428   0
135   48049228   0
132   48070028   0
127   48090828   0
121   48111632   0
116   48132428   0
109   48153228   0
103   48174028   0
95   48193788   0
90   48213548   0
88   48233308   0
88   48253068   0
89   48272828   0
91   48292588   0
94   48312348   0
97   48332108   0
99   48351868   0
102   48372668   0
104   48393468   0
108   48414268   0
113   48435068   0
118   48455868   0
124   48476668   0
124   48497468   0
124   48518268   0
124   48539068   0
123   48559868   0
120   48580668   0
119   48601468   0
115   48622268   0
129   48643068   0
138   48663868   0
159   48684668   0
169   48705468   0
169   48726268   0
169   48747068   0
171   48767868   0
170   48788668   0
169   48809468   0
167   48830268   0
166   48851068   0
164   48871868   0
164   48892668   0
163   48913468   0
164   48934268   0
163   48955068   0
163   48975868   0
164   48996668   0
164   49017468   0
163   49038268   0
162   49059068   0
161   49079868   0
162   49100668   0
161   49121468   0
160   49142268   0
161   49163068   0
161   49183868   0
161   49204668   0
161   49225468   0
161   49246268   0
161   49267068   0
161   49287868   0
161   49308668   0
160   49329468   0
159   49350268   0
160   49371068   0
150   49391868   0
149   49412668   0
147   49433468   0
146   49454268   0
142   49475068   0
140   49495868   0
138   49516668   0
137   49537468   0
135   49558268   0
135   49579068   0
133   49599868   0
131   49620668   0
131   49641468   0
129   49662268   0
128   49683068   0
127   49703868   0
124   49724668   0
123   49745468   0
121   49766268   0
120   49787068   0
120   49807868   0
120   49828668   0
122   49849468   0
123   49870268   0
123   49891068   0
123   49911868   0
124   49932668   0
125   49953468   0
125   49974268   0
124   49995068   0
124   50015868   0
124   50036668   0
123   50057468   0
123   50078268   0
123   50099068   0
122   50119868   0
121   50140668   0
120   50161468   0
120   50182268   0
120   50203068   0
120   50223868   0
119   50244668   0
119   50265468   0
120   50286268   0
120   50307068   0
121   50327868   0
123   50348668   0
124   50369468   0
127   50390268   0
128   50411068   0
133   50431868   0
139   50452668   0
147   50473468   0
150   50494268   0
153   50515068   0
158   50535868   0
178   50556668   0
200   50577468   0
199   50598268   0
198   50619068   0
196   50639868   0
152   50660668   0
152   50681468   0
152   50702268   0
153   50723068   0
154   50743868   0
154   50764668   0
153   50785468   0
152   50806268   0
150   50827068   0
148   50847868   0
175   50868668   0
222   50889468   0
217   50910268   0
213   50931068   0
209   50951868   0
204   50972668   0
199   50993468   0
195   51014268   0
196   51035068   0
195   51055868   0
127   51076668   0
133   51097468   0
129   51118268   0
131   51139068   0
137   51159868   0
137   51180668   0
137   51201468   0
137   51222268   0
139   51243068   0
141   51263868   0
143   51284668   0
143   51305468   0
145   51326268   0
145   51347068   0
146   51367868   0
164   51388668   0
147   51409468   0
146   51430268   0
157   51451068   0
148   51471868   0
135   51492668   0
150   51513468   0
152   51534268   0
155   51555068   0
154   51575868   0
155   51596668   0
156   51617468   0
154   51638268   0
163   51659068   0
161   51679868   0
151   51700668   0
169   51721468   0
160   51742268   0
163   51763068   0
163   51783868   0
162   51804668   0
161   51825468   0
160   51846268   0
161   51867068   0
162   51887868   0
162   51908668   0
160   51929468   0
163   51950268   0
163   51971068   0
163   51991868   0
166   52012668   0
199   52033468   0
158   52054268   0
165   52075068   0
159   52095868   0
168   52116668   0
160   52137468   0
160   52158268   0
153   52179068   0
159   52199868   0
158   52220668   0
158   52241468   0
157   52262268   0
135   52283068   0
160   52303868   0
159   52324668   0
157   52345468   0
159   52366268   0
143   52387068   0
150   52407868   0
152   52428668   0
153   52449468   0
154   52470268   0
156   52491068   0
157   52511868   0
158   52532668   0
205   52553468   0
220   52574268   0
221   52595068   0
220   52615868   0
222   52636668   0
222   52657468   0
222   52678268   0
223   52699068   0
222   52719868   0