EMGValue   Timestamp   TrueFlexState
511   368938108   0
511   368959948   0
511   368981788   0
512   369003628   0
512   369025468   0
512   369047308   0
511   369069148   0
511   369090988   0
510   369112828   0
510   369134668   0
510   369156508   0
509   369178348   0
508   369200188   0
508   369222028   0
508   369243868   0
508   369265708   0
509   369287548   0
508   369309388   0
507   369331228   0
505   369353068   0
505   369374908   0
504   369396752   0
504   369418588   0
503   369440428   0
504   369462268   0
503   369484108   0
504   369505948   0
504   369527788   0
503   369549628   0
504   369571468   0
505   369593308   0
510   369615148   0
513   369636988   0
515   369658828   0
515   369680668   0
516   369702508   0
514   369724348   0
512   369746188   0
513   369768028   0
512   369789868   0
512   369811708   0
511   369833548   0
511   369855388   0
512   369877228   0
511   369899068   0
510   369920908   0
511   369942748   0
508   369964588   0
508   369986428   0
507   370008268   0
507   370030108   0
507   370051948   0
506   370073788   0
507   370095628   0
506   370117468   0
505   370139308   0
505   370161148   0
505   370182988   0
504   370204828   0
503   370226668   0
503   370248508   0
504   370270348   0
504   370292188   0
503   370314028   0
503   370335868   0
503   370357708   0
502   370379548   0
502   370401388   0
501   370423228   0
503   370445068   0
501   370466908   0
502   370488748   0
502   370510588   0
502   370532428   0
501   370554268   0
502   370576108   0
501   370597948   0
501   370619788   0
502   370641628   0
500   370663468   0
499   370685308   0
500   370707148   0
496   370728988   0
499   370750828   0
498   370772668   0
498   370794512   0
498   370816348   0
497   370838188   0
499   370860028   0
498   370881868   0
499   370903708   0
499   370925548   0
502   370947388   0
501   370969228   0
500   370991068   0
502   371012908   0
501   371034748   0
502   371056588   0
502   371078428   0
502   371100268   0
502   371122108   0
503   371143948   0
502   371165788   0
503   371187628   0
502   371209468   0
500   371231308   0
501   371253148   0
500   371274988   0
500   371296828   0
501   371318668   0
499   371340508   0
499   371362348   0
497   371384188   0
496   371406028   0
496   371427868   0
496   371449708   0
495   371471548   0
495   371493388   0
494   371515228   0
494   371537068   0
493   371558908   0
492   371580748   0
492   371602588   0
492   371624428   0
491   371646268   0
491   371668108   0
492   371689948   0
492   371711788   0
492   371733628   0
492   371755468   0
493   371777308   0
493   371799148   0
494   371820988   0
494   371842828   0
494   371864668   0
494   371886508   0
494   371908348   0
495   371930188   0
495   371952028   0
496   371973868   0
497   371995708   0
497   372017548   0
497   372039388   0
497   372061228   0
496   372083068   0
496   372104908   0
494   372126748   0
492   372148588   0
491   372170428   0
489   372192272   0
489   372214108   0
489   372235948   0
489   372257788   0
488   372279628   0
488   372301468   0
488   372323308   0
488   372345148   0
488   372366988   0
489   372388828   0
489   372410668   0
489   372432508   0
489   372454348   0
489   372476188   0
491   372498028   0
490   372519868   0
491   372541708   0
490   372563548   0
491   372585388   0
491   372607228   0
491   372629068   0
491   372650908   0
492   372672748   0
492   372694588   0
492   372716428   0
492   372738268   0
492   372760108   0
492   372781948   0
492   372803788   0
492   372825628   0
492   372847468   0
492   372869308   0
494   372891148   0
494   372912988   0
494   372934828   0
493   372956668   0
493   372978508   0
493   373000348   0
492   373022188   0
492   373044028   0
494   373065868   0
493   373087708   0
494   373109548   0
492   373131388   0
495   373153228   0
493   373175068   0
494   373196908   0
494   373218748   0
495   373240588   0
493   373262428   0
493   373284268   0
494   373306108   0
493   373327948   0
494   373349788   0
492   373371628   0
492   373393468   0
489   373415308   0
489   373437148   0
489   373458988   0
487   373480828   0
487   373502668   0
488   373524508   0
489   373546348   0
491   373568188   0
493   373590032   0
494   373611868   0
495   373633708   0
496   373655548   0
496   373677388   0
496   373699228   0
496   373721068   0
496   373742908   0
496   373764748   0
496   373786588   0
496   373808428   0
496   373830268   0
496   373852108   0
496   373873948   0
496   373895788   0
496   373917628   0
496   373939468   0
496   373961308   0
495   373983148   0
496   374004988   0
496   374026828   0
496   374048668   0
496   374070508   0
496   374092348   0
496   374114188   0
496   374136028   0
496   374157868   0
496   374179708   0
495   374201548   0
496   374223388   0
496   374245228   0
496   374267068   0
496   374288908   0
496   374310748   0
495   374332588   0
496   374354428   0
496   374376268   0
496   374398108   0
496   374419948   0
496   374441788   0
495   374463628   0
496   374485468   0
496   374507308   0
495   374529148   0
496   374550988   0
495   374572828   0
495   374594668   0
495   374616508   0
495   374638348   0
495   374660188   0
495   374682028   0
495   374703868   0
495   374725708   0
495   374747548   0
496   374769388   0
495   374791228   0
495   374813068   0
495   374834908   0
495   374856748   0
495   374878588   0
495   374900428   0
495   374922268   0
495   374944108   0
495   374965948   0
497   374987792   0
495   375009628   0
497   375031468   0
496   375053308   0
495   375075148   0
496   375096988   0
496   375118828   0
496   375140668   0
495   375162508   0
496   375184348   0
496   375206188   0
495   375228028   0
496   375249868   0
495   375271708   0
495   375293548   0
496   375315388   0
495   375337228   0
496   375359068   0
495   375380908   0
495   375402748   0
495   375424588   0
495   375446428   0
496   375468268   0
494   375490108   0
495   375511948   0
496   375533788   0
496   375555628   0
496   375577468   0
495   375599308   0
492   375621148   0
496   375642988   0
496   375664828   0
496   375686668   0
496   375708508   0
496   375730348   0
496   375752188   0
496   375774028   0
495   375795868   0
496   375817708   0
495   375839548   0
496   375861388   0
496   375883228   0
495   375905068   0
496   375926908   0
496   375948748   0
496   375970588   0
496   375992428   0
496   376014268   0
496   376036108   0
497   376057948   0
496   376079788   0
496   376101628   0
496   376123468   0
496   376145308   0
496   376167148   0
496   376188988   0
496   376210828   0
496   376232668   0
496   376254508   0
496   376276348   0
496   376298188   0
496   376320028   0
495   376341868   0
496   376363708   0
496   376385552   0
496   376407388   0
496   376429228   0
496   376451068   0
495   376472908   0
495   376494748   0
495   376516588   0
496   376538428   0
496   376560268   0
496   376582108   0
496   376603948   0
496   376625788   0
496   376647628   0
496   376669468   0
496   376691308   0
496   376713148   0
496   376734988   0
496   376756828   0
496   376778668   0
497   376800508   0
496   376822348   0
497   376844188   0
498   376866028   0
496   376887868   0
497   376909708   0
497   376931548   0
496   376953388   0
496   376975228   0
496   376997068   0
496   377018908   0
496   377040748   0
497   377062588   0
496   377084428   0
497   377106268   0
497   377128108   0
496   377149948   0
497   377171788   0
496   377193628   0
497   377215468   0
496   377237308   0
497   377259148   0
496   377280988   0
496   377302828   0
496   377324668   0
497   377346508   0
496   377368348   0
496   377390188   0
496   377412028   0
496   377433868   0
496   377455708   0
496   377477548   0
496   377499388   0
496   377521228   0
496   377543068   0
496   377564908   0
496   377586748   0
496   377608588   0
496   377630428   0
496   377652268   0
496   377674108   0
496   377695948   0
496   377717788   0
496   389445868   0
496   389467708   0
496   389489548   0
496   389511388   0
496   389533228   0
496   389555068   0
496   389576908   0
496   389598748   0
496   389620588   0
496   389642428   0
496   389664268   0
496   389686108   0
496   389707948   0
496   389729788   0
496   389751628   0
496   389773468   0
496   389795308   0
496   389817148   0
497   389838988   0
496   389860828   0
496   389882668   0
496   389904508   0
497   389926348   0
496   389948188   0
497   389970028   0
496   389991868   0
496   390013708   0
497   390035548   0
496   390057388   0
497   390079228   0
496   390101068   0
496   390122908   0
496   390144748   0
496   390166588   0
496   390188428   0
496   390210268   0
496   390232108   0
496   390253948   0
496   390275788   0
496   390297628   0
496   390319468   0
496   390341308   0
496   390363152   0
496   390384988   0
496   390406828   0
495   390428668   0
495   390450508   0
496   390472348   0
496   390494188   0
496   390516028   0
496   390537868   0
496   390559708   0
496   390581548   0
496   390603388   0
495   390625228   0
495   390647068   0
495   390668908   0
496   390690748   0
494   390712588   0
495   390734428   0
496   390756268   0
496   390778108   0
496   390799948   0
496   390821788   0
496   390843628   0
496   390865468   0
497   390887308   0
497   390909148   0
497   390930988   0
497   390952828   0
500   390974668   0
499   390996508   0
499   391018348   0
502   391040188   0
503   391062028   0
504   391083868   0
504   391105708   0
505   391127548   0
505   391149388   0
505   391171228   0
508   391193068   0
508   391214908   0
507   391236748   0
507   391258588   0
505   391280428   0
504   391302268   0
504   391324108   0
504   391345948   0
504   391367788   0
504   391389628   0
504   391411468   0
503   391433308   0
504   391455148   0
503   391476988   0
504   391498828   0
504   391520668   0
504   391542508   0
504   391564348   0
504   391586188   0
504   391608028   0
503   391629868   0
502   391651708   0
502   391673548   0
500   391695388   0
499   391717228   0
497   391739068   0
497   391760912   0
496   391782748   0
494   391804588   0
494   391826428   0
492   391848268   0
492   391870108   0
491   391891948   0
492   391913788   0
490   391935628   0
489   391957468   0
489   391979308   0
489   392001148   0
489   392022988   0
489   392044828   0
489   392066668   0
489   392088508   0
489   392110348   0
487   392132188   0
487   392154028   0
488   392175868   0
488   392197708   0
489   392219548   0
489   392241388   0
489   392263228   0
489   392285068   0
488   392306908   0
489   392328748   0
489   392350588   0
489   392372428   0
489   392394268   0
489   392416108   0
489   392437948   0
490   392459788   0
489   392481628   0
490   392503468   0
491   392525308   0
490   392547148   0
491   392568988   0
490   392590828   0
491   392612668   0
491   392634508   0
491   392656348   0
492   392678188   0
489   392700028   0
489   392721868   0
487   392743708   0
487   392765548   0
487   392787388   0
486   392809228   0
487   392831068   0
487   392852908   0
487   392874748   0
486   392896588   0
486   392918428   0
487   392940268   0
486   392962108   0
485   392983948   0
486   393005788   0
486   393027628   0
487   393049468   0
487   393071308   0
490   393093148   0
492   393114988   0
492   393136828   0
492   393158672   0
492   393180508   0
495   393202348   0
496   393224188   0
495   393246028   0
495   393267868   0
495   393289708   0
495   393311548   0
493   393333388   0
492   393355228   0
492   393377068   0
491   393398908   0
492   393420748   0
489   393442588   0
487   393464428   0
486   393486268   0
486   393508108   0
484   393529948   0
484   393551788   0
483   393573628   0
483   393595468   0
482   393617308   0
483   393639148   0
482   393660988   0
483   393682828   0
483   393704668   0
483   393726508   0
483   393748348   0
483   393770188   0
485   393792028   0
485   393813868   0
486   393835708   0
486   393857548   0
487   393879388   0
487   393901228   0
487   393923068   0
489   393944908   0
489   393966748   0
489   393988588   0
489   394010428   0
489   394032268   0
491   394054108   0
490   394075948   0
491   394097788   0
491   394119628   0
491   394141468   0
492   394163308   0
492   394185148   0
492   394206988   0
492   394228828   0
492   394250668   0
493   394272508   0
492   394294348   0
492   394316188   0
493   394338028   0
494   394359868   0
494   394381708   0
493   394403548   0
494   394425388   0
494   394447228   0
494   394469068   0
494   394490908   0
494   394512748   0
494   394534588   0
495   394556432   0
495   394578268   0
496   394600108   0
496   394621948   0
495   394643788   0
495   394665628   0
495   394687468   0
496   394709308   0
496   394731148   0
496   394752988   0
496   394774828   0
496   394796668   0
496   394818508   0
496   394840348   0
496   394862188   0
496   394884028   0
496   394905868   0
495   394927708   0
496   394949548   0
496   394971388   0
496   394993228   0
496   395015068   0
497   395036908   0
497   395058748   0
497   395080588   0
497   395102428   0
497   395124268   0
497   395146108   0
496   395167948   0
497   395189788   0
497   395211628   0
496   395233468   0
497   395255308   0
496   395277148   0
497   395298988   0
496   395320828   0
497   395342668   0
497   395364508   0
499   395386348   0
496   395408188   0
496   395430028   0
497   395451868   0
496   395473708   0
497   395495548   0
496   395517388   0
496   395539228   0
496   395561068   0
496   395582908   0
497   395604748   0
496   395626588   0
496   395648428   0
496   395670268   0
496   395692108   0
497   395713948   0
496   395735788   0
497   395757628   0
497   395779468   0
496   395801308   0
496   395823148   0
497   395844988   0
496   395866828   0
495   395888668   0
496   395910508   0
495   395932348   0
495   395954192   0
496   395976028   0
495   395997868   0
492   396019708   0
493   396041548   0
491   396063388   0
489   396085228   0
490   396107068   0
489   396128908   0
491   396150748   0
491   396172588   0
492   396194428   0
492   396216268   0
493   396238108   0
494   396259948   0
494   396281788   0
496   396303628   0
496   396325468   0
496   396347308   0
496   396369148   0
497   396390988   0
497   396412828   0
498   396434668   0
498   396456508   0
497   396478348   0
499   396500188   0
498   396522028   0
498   396543868   0
499   396565708   0
498   396587548   0
502   396609388   0
499   396631228   0
502   396653068   0
500   396674908   0
501   396696748   0
507   396718588   0
505   396740428   0
508   396762268   0
505   396784108   0
505   396805948   0
504   396827788   0
504   396849628   0
504   396871468   0
504   396893308   0
503   396915148   0
502   396936988   0
502   396958828   0
500   396980668   0
500   397002508   0
500   397024348   0
499   397046188   0
499   397068028   0
500   397089868   0
501   397111708   0
499   397133548   0
499   397155388   0
499   397177228   0
499   397199068   0
499   397220908   0
500   397242748   0
499   397264588   0
499   397286428   0
499   397308268   0
499   397330108   0
501   397351952   0
499   397373788   0
499   397395628   0
499   397417468   0
499   397439308   0
499   397461148   0
499   397482988   0
499   397504828   0
499   397526668   0
499   397548508   0
499   397570348   0
498   397592188   0
497   397614028   0
497   397635868   0
497   397657708   0
496   397679548   0
496   397701388   0
496   397723228   0
496   397745068   0
496   397766908   0
496   397788748   0
499   397810588   0
497   397832428   0
497   397854268   0
497   397876108   0
497   397897948   0
497   397919788   0
496   397941628   0
497   397963468   0
496   397985308   0
497   398007148   0
496   398028988   0
497   398050828   0
496   398072668   0
498   398094508   0
497   398116348   0
498   398138188   0
497   398160028   0
497   398181868   0
497   398203708   0
496   398225548   0
496   398247388   0
495   398269228   0
496   398291068   0
496   398312908   0
495   398334748   0
495   398356588   0
496   398378428   0
495   398400268   0
494   398422108   0
494   398443948   0
494   398465788   0
493   398487628   0
494   398509468   0
492   398531308   0
493   398553148   0
493   398574988   0
491   398596828   0
489   398618668   0
487   398640508   0
487   398662348   0
487   398684188   0
486   398706028   0
486   398727868   0
483   398749712   0
483   398771548   0
482   398793388   0
482   398815228   0
482   398837068   0
481   398858908   0
481   398880748   0
481   398902588   0
481   398924428   0
483   398946268   0
483   398968108   0
486   398989948   0
485   399011788   0
485   399033628   0
484   399055468   0
486   399077308   0
484   399099148   0
486   399120988   0
486   399142828   0
487   399164668   0
487   399186508   0
487   399208348   0
487   399230188   0
487   399252028   0
489   399273868   0
490   399295708   0
491   399317548   0
492   399339388   0
492   399361228   0
493   399383068   0
495   399404908   0
495   399426748   0
495   399448588   0
496   399470428   0
495   399492268   0
496   399514108   0
496   399535948   0
496   399557788   0
496   399579628   0
495   399601468   0
496   399623308   0
495   399645148   0
495   399666988   0
495   399688828   0
496   399710668   0
495   399732508   0
494   399754348   0
492   399776188   0
491   399798028   0
487   399819868   0
487   399841708   0
487   399863548   0
485   399885388   0
485   399907228   0
484   399929068   0
484   399950908   0
483   399972748   0
483   399994588   0
483   400016428   0
483   400038268   0
483   400060108   0
482   400081948   0
481   400103788   0
480   400125628   0
479   400147472   0
478   400169308   0
477   400191148   0
476   400212988   0
476   400234828   0
476   400256668   0
476   400278508   0
477   400300348   0
476   400322188   0
477   400344028   0
478   400365868   0
478   400387708   0
480   400409548   0
479   400431388   0
478   400453228   0
478   400475068   0
478   400496908   0
479   400518748   0
477   400540588   0
479   400562428   0
479   400584268   0
479   400606108   0
478   400627948   0
480   400649788   0
480   400671628   0
480   400693468   0
480   400715308   0
480   400737148   0
480   400758988   0
480   400780828   0
480   400802668   0
480   400824508   0
480   400846348   0
480   400868188   0
481   400890028   0
480   400911868   0
480   400933708   0
480   400955548   0
480   400977388   0
480   400999228   0
480   401021068   0
480   401042908   0
480   401064748   0
482   401086588   0
482   401108428   0
481   401130268   0
482   401152108   0
480   401173948   0
481   401195788   0
481   401217628   0
482   401239468   0
481   401261308   0
482   401283148   0
481   401304988   0
483   401326828   0
483   401348668   0
482   401370508   0
483   401392348   0
482   401414188   0
483   401436028   0
481   401457868   0
481   401479708   0
481   401501548   0
481   401523388   0
481   401545232   0
481   401567068   0
481   401588908   0
482   401610748   0
483   401632588   0
484   401654428   0
486   401676268   0
486   401698108   0
487   401719948   0
487   401741788   0
487   401763628   0
488   401785468   0
488   401807308   0
487   401829148   0
489   401850988   0
489   401872828   0
489   401894668   0
489   401916508   0
490   401938348   0
490   401960188   0
489   401982028   0
490   402003868   0
489   402025708   0
487   402047548   0
489   402069388   0
489   402091228   0
490   402113068   0
491   402134908   0
489   402156748   0
490   402178588   0
489   402200428   0
489   402222268   0
489   402244108   0
491   402265948   0
491   402287788   0
492   402309628   0
491   402331468   0
492   402353308   0
492   402375148   0
492   402396988   0
492   402418828   0
493   402440668   0
493   402462508   0
493   402484348   0
494   402506188   0
494   402528028   0
495   402549868   0
497   402571708   0
496   402593548   0
496   402615388   0
497   402637228   0
498   402659068   0
498   402680908   0
499   402702748   0
498   402724588   0
499   402746428   0
499   402768268   0
499   402790108   0
499   402811948   0
499   402833788   0
499   402855628   0
499   402877468   0
500   402899308   0
499   402921148   0
500   402942992   0
500   402964828   0
500   402986668   0
500   403008508   0
499   403030348   0
500   403052188   0
500   403074028   0
502   403095868   0
501   403117708   0
502   403139548   0
502   403161388   0
503   403183228   0
502   403205068   0
502   403226908   0
502   403248748   0
502   403270588   0
502   403292428   0
502   403314268   0
502   403336108   0
502   403357948   0
502   403379788   0
502   403401628   0
503   403423468   0
503   403445308   0
503   403467148   0
502   403488988   0
503   403510828   0
504   403532668   0
503   403554508   0
504   403576348   0
504   403598188   0
504   403620028   0
504   403641868   0
504   403663708   0
504   403685548   0
504   403707388   0
504   403729228   0
504   403751068   0
503   403772908   0
504   403794748   0
504   403816588   0
504   403838428   0
504   403860268   0
504   403882108   0
504   403903948   0
504   403925788   0
503   403947628   0
504   403969468   0
502   403991308   0
503   404013148   0
502   404034988   0
503   404056828   0
502   404078668   0
503   404100508   0
503   404122348   0
503   404144188   0
503   404166028   0
502   404187868   0
502   404209708   0
503   404231548   0
502   404253388   0
503   404275228   0
502   404297068   0
502   404318908   0
502   404340752   0
502   404362588   0
500   404384428   0
502   404406268   0
500   404428108   0
499   404449948   0
499   404471788   0
499   404493628   0
501   404515468   0
501   404537308   0
502   404559148   0
502   404580988   0
503   404602828   0
502   404624668   0
502   404646508   0
502   404668348   0
503   404690188   0
502   404712028   0
501   404733868   0
501   404755708   0
502   404777548   0
502   404799388   0
501   404821228   0
500   404843068   0
500   404864908   0
499   404886748   0
500   404908588   0
500   404930428   0
500   404952268   0
502   404974108   0
502   404995948   0
502   405017788   0
500   405039628   0
499   405061468   0
500   405083308   0
500   405105148   0
500   405126988   0
499   405148828   0
500   405170668   0
499   405192508   0
499   405214348   0
498   405236188   0
497   405258028   0
497   405279868   0
498   405301708   0
497   405323548   0
498   405345388   0
499   405367228   0
499   405389068   0
500   405410908   0
499   405432748   0
500   405454588   0
499   405476428   0
499   405498268   0
500   405520108   0
500   405541948   0
500   405563788   0
500   405585628   0
499   405607468   0
500   405629308   0
500   405651148   0
499   405672988   0
500   405694828   0
498   405716668   0
499   405738512   0
499   405760348   0
499   405782188   0
497   405804028   0
499   405825868   0
498   405847708   0
499   405869548   0
498   405891388   0
499   405913228   0
499   405935068   0
499   405956908   0
499   405978748   0
500   406000588   0
499   406022428   0
499   406044268   0
499   406066108   0
498   406087948   0
498   406109788   0
496   406131628   0
497   406153468   0
498   406175308   0
497   406197148   0
499   406218988   0
499   406240828   0
500   406262668   0
500   406284508   0
501   406306348   0
502   406328188   0
501   406350028   0
502   406371868   0
500   406393708   0
500   406415548   0
500   406437388   0
502   406459228   0
500   406481068   0
500   406502908   0
499   406524748   0
499   406546588   0
499   406568428   0
500   406590268   0
499   406612108   0
498   406633948   0
498   406655788   0
497   406677628   0
496   406699468   0
496   406721308   0
495   406743148   0
495   406764988   0
495   406786828   0
496   406808668   0
494   406830508   0
494   406852348   0
495   406874188   0
494   406896028   0
494   406917868   0
494   406939708   0
494   406961548   0
494   406983388   0
492   407005228   0
494   407027068   0
493   407048908   0
494   407070748   0
493   407092588   0
494   407114428   0
492   407136272   0
493   407158108   0
494   407179948   0
495   407201788   0
494   407223628   0
495   407245468   0
495   407267308   0
494   407289148   0
496   407310988   0
496   407332828   0
496   407354668   0
496   407376508   0
497   407398348   0
497   407420188   0
497   407442028   0
498   407463868   0
497   407485708   0
498   407507548   0
499   407529388   0
498   407551228   0
499   407573068   0
499   407594908   0
499   407616748   0
500   407638588   0
500   407660428   0
500   407682268   0
502   407704108   0
500   407725948   0
499   407747788   0
500   407769628   0
500   407791468   0
500   407813308   0
499   407835148   0
501   407856988   0
499   407878828   0
500   407900668   0
500   407922508   0
499   407944348   0
499   407966188   0
500   407988028   0
499   408009868   0
499   408031708   0
500   408053548   0
499   408075388   0
500   408097228   0
500   408119068   0
500   408140908   0
499   408162748   0
500   408184588   0
499   408206428   0
499   408228268   0
499   408250108   0
499   408271948   0
499   408293788   0
499   408315628   0
499   408337468   0
499   408359308   0
499   408381148   0
498   408402988   0
499   408424828   0
497   408446668   0
498   408468508   0
499   408490348   0
497   408512188   0
499   408534032   0
497   408555868   0
498   408577708   0
497   408599548   0
497   408621388   0
499   408643228   0
498   408665068   0
498   408686908   0
497   408708748   0
497   408730588   0
501   408752428   0
499   408774268   0
497   408796108   0
498   408817948   0
497   408839788   0
497   408861628   0
496   408883468   0
497   408905308   0
497   408927148   0
498   408948988   0
497   408970828   0
497   408992668   0
497   409014508   0
497   409036348   0
497   409058188   0
498   409080028   0
498   409101868   0
496   409123708   0
497   409145548   0
497   409167388   0
497   409189228   0
498   409211068   0
497   409232908   0
497   409254748   0
497   409276588   0
496   409298428   0
497   409320268   0
498   409342108   0
497   409363948   0
497   409385788   0
497   409407628   0
497   409429468   0
497   409451308   0
497   409473148   0
496   409494988   0
497   409516828   0
497   409538668   0
497   409560508   0
497   409582348   0
497   409604188   0
497   409626028   0
497   409647868   0
497   409669708   0
497   409691548   0
497   409713388   0
496   409735228   0
497   409757068   0
497   409778908   0
498   409800748   0
496   409822588   0
497   409844428   0
497   409866268   0
497   409888108   0
497   409909948   0
496   409931792   0
496   409953628   0
496   409975468   0
497   409997308   0
497   410019148   0
497   410040988   0
496   410062828   0
498   410084668   0
496   410106508   0
497   410128348   0
497   410150188   0
497   410172028   0
498   410193868   0
497   410215708   0
497   410237548   0
497   410259388   0
497   410281228   0
497   410303068   0
497   410324908   0
497   410346748   0
498   410368588   0
497   410390428   0
496   410412268   0
497   410434108   0
497   410455948   0
497   410477788   0
497   410499628   0
497   410521468   0
497   410543308   0
498   410565148   0
497   410586988   0
497   410608828   0
496   410630668   0
497   410652508   0
496   410674348   0
496   410696188   0
496   410718028   0
496   410739868   0
496   410761708   0
496   410783548   0
496   410805388   0
496   410827228   0
497   410849068   0
496   410870908   0
496   410892748   0
496   410914588   0
496   410936428   0
496   410958268   0
497   410980108   0
497   411001948   0
496   411023788   0
496   411045628   0
497   411067468   0
496   411089308   0
496   411111148   0
497   411132988   0
496   411154828   0
496   411176668   0
496   411198508   0
496   411220348   0
496   411242188   0
496   411264028   0
496   411285868   0
496   411307708   0
496   411329552   0
497   411351388   0
496   411373228   0
496   411395068   0
496   411416908   0
496   411438748   0
496   411460588   0
496   411482428   0
496   411504268   0
496   411526108   0
496   411547948   0
497   411569788   0
496   411591628   0
496   411613468   0
496   411635308   0
496   411657148   0
497   411678988   0
496   411700828   0
496   411722668   0
497   411744508   0
496   411766348   0
496   411788188   0
499   411810028   0
496   411831868   0
497   411853708   0
497   411875548   0
496   411897388   0
496   411919228   0
496   411941068   0
496   411962908   0
497   411984748   0
496   412006588   0
496   412028428   0
497   412050268   0
497   412072108   0
496   412093948   0
496   412115788   0
494   412137628   0
496   412159468   0
496   412181308   0
496   412203148   0
496   412224988   0
497   412246828   0
497   412268668   0
496   412290508   0
496   412312348   0
496   412334188   0
496   412356028   0
496   412377868   0
495   412399708   0
496   412421548   0
496   412443388   0
496   412465228   0
496   412487068   0
496   412508908   0
496   412530748   0
496   412552588   0
496   412574428   0
496   412596268   0
496   412618108   0
496   412639948   0
497   412661788   0
496   412683628   0
497   412705468   0
496   412727312   0
496   412749148   0
496   412770988   0
497   412792828   0
496   412814668   0
496   412836508   0
496   412858348   0
496   412880188   0
496   412902028   0
496   412923868   0
497   412945708   0
496   412967548   0
496   412989388   0
495   413011228   0
496   413033068   0
495   413054908   0
495   413076748   0
495   413098588   0
494   413120428   0
495   413142268   0
496   413164108   0
495   413185948   0
496   413207788   0
496   413229628   0
495   413251468   0
496   413273308   0
496   413295148   0
495   413316988   0
496   413338828   0
496   413360668   0
496   413382508   0
497   413404348   0
497   413426188   0
497   413448028   0
498   413469868   0
497   413491708   0
497   413513548   0
496   413535388   0
496   413557228   0
496   413579068   0
497   413600908   0
497   413622748   0
497   413644588   0
497   413666428   0
498   413688268   0
497   413710108   0
497   413731948   0
498   413753788   0
498   413775628   0
499   413797468   0
497   413819308   0
498   413841148   0
497   413862988   0
497   413884828   0
499   413906668   0
497   413928508   0
497   413950348   0
496   413972188   0
496   413994028   0
497   414015868   0
497   414037708   0
497   414059548   0
497   414081388   0
497   414103228   0
497   414125072   0
497   414146908   0
496   414168748   0
497   414190588   0
497   414212428   0
497   414234268   0
496   414256108   0
497   414277948   0
497   414299788   0
497   414321628   0
497   414343468   0
497   414365308   0
496   414387148   0
497   414408988   0
497   414430828   0
497   414452668   0
498   414474508   0
497   414496348   0
497   414518188   0
497   414540028   0
497   414561868   0
498   414583708   0
495   414605548   0
497   414627388   0
497   414649228   0
498   414671068   0
497   414692908   0
496   414714748   0
497   414736588   0
498   414758428   0
497   414780268   0
497   414802108   0
497   414823948   0
497   414845788   0
496   414867628   0
497   414889468   0
497   414911308   0
497   414933148   0
498   414954988   0
498   414976828   0
498   414998668   0
497   415020508   0
497   415042348   0
497   415064188   0
496   415086028   0
497   415107868   0
497   415129708   0
497   415151548   0
496   415173388   0
499   415195228   0
497   415217068   0
498   415238908   0
496   415260748   0
496   415282588   0
497   415304428   0
497   415326268   0
497   415348108   0
496   415369948   0
497   415391788   0
496   415413628   0
496   415435468   0
496   415457308   0
496   415479148   0
497   415500988   0
496   415522832   0
497   415544668   0
497   415566508   0
498   415588348   0
499   415610188   0
497   415632028   0
496   415653868   0
497   415675708   0
498   415697548   0
497   415719388   0
497   415741228   0
497   415763068   0
497   415784908   0
498   415806748   0
496   415828588   0
497   415850428   0
497   415872268   0
497   415894108   0
497   415915948   0
498   415937788   0
496   415959628   0
497   415981468   0
498   416003308   0
496   416025148   0
497   416046988   0
497   416068828   0
498   416090668   0
497   416112508   0
497   416134348   0
497   416156188   0
497   416178028   0
497   416199868   0
497   416221708   0
497   416243548   0
497   416265388   0
497   416287228   0
496   416309068   0
497   416330908   0
498   416352748   0
497   416374588   0
497   416396428   0
497   416418268   0
497   416440108   0
497   416461948   0
497   416483788   0
497   416505628   0
497   416527468   0
497   416549308   0
497   416571148   0
497   416592988   0
499   416614828   0
497   416636668   0
496   416658508   0
497   416680348   0
496   416702188   0
497   416724028   0
497   416745868   0
496   416767708   0
497   416789548   0
497   416811388   0
497   416833228   0
497   416855068   0
496   416876908   0
497   416898748   0
498   416920592   0
497   416942428   0
497   416964268   0
496   416986108   0
497   417007948   0
497   417029788   0
497   417051628   0
497   417073468   0
498   417095308   0
497   417117148   0
497   417138988   0
497   417160828   0
497   417182668   0
499   417204508   0
497   417226348   0
497   417248188   0
497   417270028   0
497   417291868   0
497   417313708   0
497   417335548   0
497   417357388   0
498   417379228   0
497   417401068   0
496   417422908   0
497   417444748   0
497   417466588   0
497   417488428   0
497   417510268   0
496   417532108   0
496   417553948   0
497   417575788   0
497   417597628   0
497   417619468   0
497   417641308   0
497   417663148   0
496   417684988   0
497   417706828   0
497   417728668   0
497   417750508   0
497   417772348   0
497   417794188   0
496   417816028   0
497   417837868   0
497   417859708   0
497   417881548   0
497   417903388   0
497   417925228   0
497   417947068   0
496   417968908   0
496   417990748   0
496   418012588   0
496   418034428   0
496   418056268   0
496   418078108   0
497   418099948   0
496   418121788   0
496   418143628   0
496   418165468   0
496   418187308   0
496   418209148   0
496   418230988   0
496   418252828   0
496   418274668   0
496   418296508   0
497   418318352   0
496   418340188   0
496   418362028   0
497   418383868   0
497   418405708   0
496   418427548   0
496   418449388   0
497   418471228   0
496   418493068   0
497   418514908   0
497   418536748   0
497   418558588   0
496   418580428   0
497   418602268   0
497   418624108   0
496   418645948   0
496   418667788   0
496   418689628   0
498   418711468   0
496   418733308   0
497   418755148   0
496   418776988   0
496   418798828   0
497   418820668   0
496   418842508   0
498   418864348   0
496   418886188   0
496   418908028   0
497   418929868   0
497   418951708   0
496   418973548   0
496   418995388   0
496   419017228   0
496   419039068   0
496   419060908   0
496   419082748   0
496   419104588   0
497   419126428   0
497   419148268   0
497   419170108   0
496   419191948   0
497   419213788   0
496   419235628   0
496   419257468   0
496   419279308   0
497   419301148   0
496   419322988   0
496   419344828   0
497   419366668   0
497   419388508   0
496   419410348   0
496   419432188   0
497   419454028   0
496   419475868   0
496   419497708   0
496   419519548   0
496   419541388   0
496   419563228   0
495   419585068   0
496   419606908   0
496   419628748   0
495   419650588   0
495   419672428   0
495   419694268   0
495   419716112   0
495   419737948   0
496   419759788   0
496   419781628   0
496   419803468   0
496   419825308   0
496   419847148   0
496   419868988   0
496   419890828   0
496   419912668   0
496   419934508   0
496   419956348   0
496   419978188   0
497   420000028   0
497   420021868   0
496   420043708   0
496   420065548   0
495   420087388   0
495   420109228   0
496   420131068   0
496   420152908   0
496   420174748   0
496   420196588   0
496   420218428   0
496   420240268   0
496   420262108   0
496   420283948   0
497   420305788   0
496   420327628   0
496   420349468   0
496   420371308   0
496   420393148   0
496   420414988   0
496   420436828   0
497   420458668   0
496   420480508   0
496   420502348   0
495   420524188   0
496   420546028   0
496   420567868   0
497   420589708   0
496   420611548   0
496   420633388   0
496   420655228   0
496   420677068   0
496   420698908   0
496   420720748   0
496   420742588   0
496   420764428   0
496   420786268   0
496   420808108   0
496   420829948   0
496   420851788   0
496   420873628   0
496   420895468   0
496   420917308   0
496   420939148   0
496   420960988   0
496   420982828   0
496   421004668   0
496   421026508   0
496   421048348   0
496   421070188   0
496   421092028   0
497   421113872   0
496   421135708   0
497   421157548   0
496   421179388   0
496   421201228   0
496   421223068   0
496   421244908   0
496   421266748   0
496   421288588   0
496   421310428   0
497   421332268   0
496   421354108   0
497   421375948   0
496   421397788   0
496   421419628   0
496   421441468   0
496   421463308   0
497   421485148   0
497   421506988   0
496   421528828   0
496   421550668   0
497   421572508   0
496   421594348   0
496   421616188   0
496   421638028   0
497   421659868   0
496   421681708   0
496   421703548   0
496   421725388   0
496   421747228   0
497   421769068   0
496   421790908   0
496   421812748   0
496   421834588   0
497   421856428   0
496   421878268   0
496   421900108   0
496   421921948   0
496   421943788   0
498   421965628   0
496   421987468   0
496   422009308   0
496   422031148   0
496   422052988   0
496   422074828   0
497   422096668   0
496   422118508   0
497   422140348   0
496   422162188   0
496   422184028   0
496   422205868   0
496   422227708   0
495   422249548   0
496   422271388   0
496   422293228   0
496   422315068   0
497   422336908   0
496   422358748   0
496   422380588   0
496   422402428   0
497   422424268   0
496   422446108   0
496   422467948   0
496   422489788   0
496   422511632   0
496   422533468   0
496   422555308   0
496   422577148   0
496   422598988   0
496   422620828   0
497   422642668   0
496   422664508   0
497   422686348   0
497   422708188   0
496   422730028   0
496   422751868   0
497   422773708   0
496   422795548   0
496   422817388   0
496   422839228   0
496   422861068   0
496   422882908   0
497   422904748   0
496   422926588   0
497   422948428   0
497   422970268   0
497   422992108   0
496   423013948   0
496   423035788   0
496   423057628   0
497   423079468   0
497   423101308   0
496   423123148   0
497   423144988   0
496   423166828   0
497   423188668   0
496   423210508   0
496   423232348   0
497   423254188   0
497   423276028   0
496   423297868   0
497   423319708   0
497   423341548   0
497   423363388   0
497   423385228   0
496   423407068   0
496   423428908   0
496   423450748   0
497   423472588   0
496   423494428   0
497   423516268   0
496   423538108   0
497   423559948   0
496   423581788   0
496   423603628   0
496   423625468   0
497   423647308   0
496   423669148   0
496   423690988   0
496   423712828   0
496   423734668   0
496   423756508   0
497   423778348   0
497   423800188   0
496   423822028   0
496   423843868   0
496   423865708   0
496   423887548   0
496   423909392   0
496   423931228   0
496   423953068   0
497   423974908   0
497   423996748   0
496   424018588   0
496   424040428   0
496   424062268   0
497   424084108   0
497   424105948   0
496   424127788   0
496   424149628   0
496   424171468   0
497   424193308   0
496   424215148   0
496   424236988   0
496   424258828   0
496   424280668   0
496   424302508   0
496   424324348   0
496   424346188   0
496   424368028   0
496   424389868   0
496   424411708   0
496   424433548   0
496   424455388   0
496   424477228   0
496   424499068   0
496   424520908   0
496   424542748   0
496   424564588   0
496   424586428   0
496   424608268   0
496   424630108   0
496   424651948   0
496   424673788   0
496   424695628   0
496   424717468   0
496   424739308   0
496   424761148   0
496   424782988   0
497   424804828   0
496   424826668   0
496   424848508   0
496   424870348   0
495   424892188   0
495   424914028   0
496   424935868   0
496   424957708   0
496   424979548   0
496   425001388   0
497   425023228   0
497   425045068   0
496   425066908   0
497   425088748   0
496   425110588   0
497   425132428   0
497   425154268   0
496   425176108   0
497   425197948   0
497   425219788   0
496   425241628   0
497   425263468   0
496   425285308   0
496   425307152   0
496   425328988   0
497   425350828   0
497   425372668   0
496   425394508   0
496   425416348   0
496   425438188   0
497   425460028   0
496   425481868   0
496   425503708   0
496   425525548   0
496   425547388   0
496   425569228   0
496   425591068   0
496   425612908   0
497   425634748   0
497   425656588   0
496   425678428   0
496   425700268   0
496   425722108   0
496   425743948   0
496   425765788   0
496   425787628   0
496   425809468   0
496   425831308   0
496   425853148   0
496   425874988   0
496   425896828   0
496   425918668   0
496   425940508   0
496   425962348   0
496   425984188   0
496   426006028   0
496   426027868   0
496   426049708   0
496   426071548   0
496   426093388   0
496   426115228   0
496   426137068   0
497   426158908   0
496   426180748   0
496   426202588   0
497   426224428   0
497   426246268   0
497   426268108   0
496   426289948   0
496   426311788   0
496   426333628   0
496   426355468   0
496   426377308   0
496   426399148   0
497   426420988   0
496   426442828   0
496   426464668   0
496   426486508   0
497   426508348   0
496   426530188   0
496   426552028   0
496   426573868   0
496   426595708   0
496   426617548   0
496   426639388   0
496   426661228   0
496   426683068   0
496   426704912   0
496   426726748   0
496   426748588   0
495   426770428   0
497   426792268   0
496   426814108   0
496   426835948   0
496   426857788   0
497   426879628   0
497   426901468   0
496   426923308   0
496   426945148   0
496   426966988   0
496   426988828   0
496   427010668   0
496   427032508   0
496   427054348   0
496   427076188   0
496   427098028   0
496   427119868   0
496   427141708   0
496   427163548   0
496   427185388   0
496   427207228   0
496   427229068   0
496   427250908   0
496   427272748   0
496   427294588   0
495   427316428   0
495   427338268   0
495   427360108   0
495   427381948   0
502   427403788   0
494   427425628   0
492   427447468   0
496   427469308   0
496   427491148   0
494   427512988   0
501   427534828   0
487   427556668   0
492   427578508   0
494   427600348   0
492   427622188   0
487   427644028   0
496   427665868   0
485   427687708   0
489   427709548   0
490   427731388   0
492   427753228   0
492   427775068   0
492   427796908   0
495   427818748   0
494   427840588   0
495   427862428   0
496   427884268   0
497   427906108   0
497   427927948   0
497   427949788   0
496   427971628   0
497   427993468   0
499   428015308   0
498   428037148   0
498   428058988   0
498   428080828   0
497   428102672   0
499   428124508   0
497   428146348   0
497   428168188   0
497   428190028   0
498   428211868   0
498   428233708   0
498   428255548   0
497   428277388   0
497   428299228   0
498   428321068   0
498   428342908   0
497   428364748   0
498   428386588   0
496   428408428   0
497   428430268   0
497   428452108   0
497   428473948   0
498   428495788   0
496   428517628   0
497   428539468   0
497   428561308   0
497   428583148   0
497   428604988   0
497   428626828   0
496   428648668   0
497   428670508   0
496   428692348   0
497   428714188   0
496   428736028   0
496   428757868   0
497   428779708   0
496   428801548   0
496   428823388   0
496   428845228   0
496   428867068   0
497   428888908   0
497   428910748   0
496   428932588   0
496   428954428   0
496   428976268   0
497   428998108   0
496   429019948   0
496   429041788   0
496   429063628   0
496   429085468   0
497   429107308   0
496   429129148   0
497   429150988   0
497   429172828   0
497   429194668   0
496   429216508   0
497   429238348   0
497   429260188   0
496   429282028   0
497   429303868   0
496   429325708   0
496   429347548   0
496   429369388   0
496   429391228   0
497   429413068   0
496   429434908   0
497   429456748   0
496   429478588   0
496   429500432   0
496   429522268   0
496   429544108   0
496   429565948   0
496   429587788   0
496   429609628   0
499   429631468   0
496   429653308   0
496   429675148   0
496   429696988   0
496   429718828   0
496   429740668   0
496   429762508   0
496   429784348   0
497   429806188   0
497   429828028   0
496   429849868   0
497   429871708   0
496   429893548   0
496   429915388   0
496   429937228   0
497   429959068   0
497   429980908   0
497   430002748   0
496   430024588   0
496   430046428   0
497   430068268   0
496   430090108   0
496   430111948   0
496   430133788   0
496   430155628   0
498   430177468   0
497   430199308   0
497   430221148   0
498   430242988   0
498   430264828   0
498   430286668   0
499   430308508   0
496   430330348   0
496   430352188   0
496   430374028   0
496   430395868   0
496   430417708   0
496   430439548   0
495   430461388   0
496   430483228   0
495   430505068   0
496   430526908   0
496   430548748   0
496   430570588   0
495   430592428   0
497   430614268   0
497   430636108   0
496   430657948   0
496   430679788   0
496   430701628   0
496   430723468   0
496   430745308   0
496   430767148   0
496   430788988   0
496   430810828   0
496   430832668   0
496   430854508   0
496   430876348   0
496   430898192   0
496   430920028   0
496   430941868   0
496   430963708   0
496   430985548   0
496   431007388   0
496   431029228   0
496   431051068   0
496   431072908   0
496   431094748   0
496   431116588   0
496   431138428   0
496   431160268   0
497   431182108   0
496   431203948   0
496   431225788   0
496   431247628   0
496   431269468   0
496   431291308   0
496   431313148   0
496   431334988   0
496   431356828   0
496   431378668   0
496   431400508   0
496   431422348   0
496   431444188   0
496   431466028   0
496   431487868   0
496   431509708   0
496   431531548   0
496   431553388   0
497   431575228   0
496   431597068   0
496   431618908   0
496   431640748   0
496   431662588   0
496   431684428   0
496   431706268   0
496   431728108   0
497   431749948   0
496   431771788   0
496   431793628   0
496   431815468   0
497   431837308   0
497   431859148   0
496   431880988   0
496   431902828   0
496   431924668   0
496   431946508   0
496   431968348   0
496   431990188   0
496   432012028   0
496   432033868   0
496   432055708   0
497   432077548   0
496   432099388   0
496   432121228   0
496   432143068   0
496   432164908   0
496   432186748   0
496   432208588   0
496   432230428   0
496   432252268   0
496   432274108   0
496   432295952   0
496   432317788   0
496   432339628   0
496   432361468   0
496   432383308   0
496   432405148   0
496   432426988   0
496   432448828   0
496   432470668   0
497   432492508   0
496   432514348   0
496   432536188   0
496   432558028   0
496   432579868   0
496   432601708   0
496   432623548   0
496   432645388   0
496   432667228   0
496   432689068   0
496   432710908   0
496   432732748   0
496   432754588   0
497   432776428   0
496   432798268   0
496   432820108   0
497   432841948   0
496   432863788   0
496   432885628   0
496   432907468   0
497   432929308   0
496   432951148   0
496   432972988   0
496   432994828   0
496   433016668   0
497   433038508   0
497   433060348   0
496   433082188   0
495   433104028   0
496   433125868   0
496   433147708   0
495   433169548   0
496   433191388   0
497   433213228   0
496   433235068   0
495   433256908   0
496   433278748   0
496   433300588   0
496   433322428   0
496   433344268   0
496   433366108   0
496   433387948   0
496   433409788   0
495   433431628   0
496   433453468   0
496   433475308   0
496   433497148   0
497   433518988   0
497   433540828   0
496   433562668   0
496   433584508   0
496   433606348   0
496   433628188   0
496   433650028   0
496   433671868   0
496   433693712   0
496   433715548   0
496   433737388   0
495   433759228   0
496   433781068   0
496   433802908   0
496   433824748   0
499   433846588   0
496   433868428   0
496   433890268   0
496   433912108   0
496   433933948   0
496   433955788   0
496   433977628   0
496   433999468   0
495   434021308   0
496   434043148   0
496   434064988   0
495   434086828   0
496   434108668   0
496   434130508   0
497   434152348   0
494   434174188   0
497   434196028   0
496   434217868   0
497   434239708   0
497   434261548   0
496   434283388   0
498   434305228   0
496   434327068   0
497   434348908   0
496   434370748   0
497   434392588   0
496   434414428   0
496   434436268   0
496   434458108   0
496   434479948   0
496   434501788   0
496   434523628   0
496   434545468   0
496   434567308   0
497   434589148   0
496   434610988   0
496   434632828   0
496   434654668   0
496   434676508   0
496   434698348   0
496   434720188   0
496   434742028   0
495   434763868   0
496   434785708   0
496   434807548   0
496   434829388   0
495   434851228   0
496   434873068   0
496   434894908   0
496   434916748   0
496   434938588   0
496   434960428   0
495   434982268   0
496   435004108   0
496   435025948   0
496   435047788   0
495   435069628   0
496   435091472   0
496   435113308   0
496   435135148   0
496   435156988   0
496   435178828   0
496   435200668   0
498   435222508   0
497   435244348   0
496   435266188   0
496   435288028   0
497   435309868   0
496   435331708   0
496   435353548   0
497   435375388   0
496   435397228   0
496   435419068   0
496   435440908   0
496   435462748   0
496   435484588   0
496   435506428   0
496   435528268   0
496   435550108   0
497   435571948   0
496   435593788   0
496   435615628   0
496   435637468   0
496   435659308   0
497   435681148   0
496   435702988   0
496   435724828   0
496   435746668   0
496   435768508   0
496   435790348   0
496   435812188   0
496   435834028   0
499   435855868   0
496   435877708   0
496   435899548   0
496   435921388   0
496   435943228   0
496   435965068   0
496   435986908   0
496   436008748   0
496   436030588   0
496   436052428   0
496   436074268   0
496   436096108   0
496   436117948   0
496   436139788   0
496   436161628   0
496   436183468   0
496   436205308   0
496   436227148   0
496   436248988   0
497   436270828   0
496   436292668   0
496   436314508   0
496   436336348   0
496   436358188   0
496   436380028   0
496   436401868   0
497   436423708   0
497   436445548   0
497   436467388   0
497   436489232   0
496   436511068   0
496   436532908   0
496   436554748   0
497   436576588   0
497   436598428   0
496   436620268   0
496   436642108   0
497   436663948   0
496   436685788   0
497   436707628   0
497   436729468   0
496   436751308   0
497   436773148   0
497   436794988   0
496   436816828   0
496   436838668   0
496   436860508   0
496   436882348   0
497   436904188   0
497   436926028   0
497   436947868   0
497   436969708   0
497   436991548   0
497   437013388   0
496   437035228   0
496   437057068   0
496   437078908   0
497   437100748   0
497   437122588   0
496   437144428   0
497   437166268   0
497   437188108   0
497   437209948   0
497   437231788   0
497   437253628   0
496   437275468   0
497   437297308   0
496   437319148   0
497   437340988   0
496   437362828   0
496   437384668   0
497   437406508   0
497   437428348   0
497   437450188   0
496   437472028   0
497   437493868   0
497   437515708   0
497   437537548   0
497   437559388   0
497   437581228   0
497   437603068   0
497   437624908   0
497   437646748   0
497   437668588   0
497   437690428   0
497   437712268   0
497   437734108   0
497   437755948   0
497   437777788   0
496   437799628   0
497   437821468   0
496   437843308   0
497   437865148   0
497   437886992   0
497   437908828   0
497   437930668   0
496   437952508   0
496   437974348   0
497   437996188   0
497   438018028   0
496   438039868   0
497   438061708   0
496   438083548   0
497   438105388   0
496   438127228   0
497   438149068   0
497   438170908   0
496   438192748   0
496   438214588   0
497   438236428   0
496   438258268   0
497   438280108   0
497   438301948   0
497   438323788   0
497   438345628   0
497   438367468   0
497   438389308   0
497   438411148   0
497   438432988   0
497   438454828   0
496   438476668   0
496   438498508   0
495   438520348   0
492   438542188   0
490   438564028   0
490   438585868   0
492   438607708   0
491   438629548   0
492   438651388   0
493   438673228   0
493   438695068   0
494   438716908   0
492   438738748   0
493   438760588   0
492   438782428   0
493   438804268   0
494   438826108   0
495   438847948   0
496   438869788   0
495   438891628   0
496   438913468   0
496   438935308   0
495   438957148   0
495   438978988   0
496   439000828   0
495   439022668   0
496   439044508   0
499   439066348   0
498   439088188   0
499   439110028   0
499   439131868   0
499   439153708   0
498   439175548   0
498   439197388   0
499   439219228   0
499   439241068   0
499   439262908   0
499   439284752   0
499   439306588   0
499   439328428   0
499   439350268   0
498   439372108   0
497   439393948   0
498   439415788   0
499   439437628   0
497   439459468   0
498   439481308   0
498   439503148   0
499   439524988   0
498   439546828   0
498   439568668   0
497   439590508   0
498   439612348   0
498   439634188   0
498   439656028   0
496   439677868   0
495   439699708   0
495   439721548   0
492   439743388   0
492   439765228   0
492   439787068   0
491   439808908   0
491   439830748   0
491   439852588   0
491   439874428   0
491   439896268   0
492   439918108   0
493   439939948   0
493   439961788   0
494   439983628   0
494   440005468   0
494   440027308   0
493   440049148   0
494   440070988   0
492   440092828   0
492   440114668   0
492   440136508   0
492   440158348   0
493   440180188   0
495   440202028   0
495   440223868   0
496   440245708   0
496   440267548   0
497   440289388   0
497   440311228   0
496   440333068   0
497   440354908   0
496   440376748   0
496   440398588   0
496   440420428   0
497   440442268   0
497   440464108   0
497   440485948   0
499   440507788   0
499   440529628   0
499   440551468   0
499   440573308   0
499   440595148   0
498   440616988   0
499   440638828   0
497   440660668   0
497   440682512   0
497   440704348   0
496   440726188   0
496   440748028   0
497   440769868   0
496   440791708   0
496   440813548   0
496   440835388   0
497   440857228   0
496   440879068   0
499   440900908   0
497   440922748   0
496   440944588   0
497   440966428   0
497   440988268   0
496   441010108   0
496   441031948   0
496   441053788   0
497   441075628   0
497   441097468   0
497   441119308   0
497   441141148   0
498   441162988   0
499   441184828   0
499   441206668   0
499   441228508   0
498   441250348   0
500   441272188   0
499   441294028   0
498   441315868   0
498   441337708   0
498   441359548   0
499   441381388   0
499   441403228   0
498   441425068   0
498   441446908   0
497   441468748   0
497   441490588   0
496   441512428   0
497   441534268   0
497   441556108   0
497   441577948   0
497   441599788   0
496   441621628   0
497   441643468   0
497   441665308   0
497   441687148   0
496   441708988   0
497   441730828   0
496   441752668   0
496   441774508   0
496   441796348   0
497   441818188   0
498   441840028   0
497   441861868   0
497   441883708   0
497   441905548   0
497   441927388   0
497   441949228   0
499   441971068   0
499   441992908   0
498   442014748   0
499   442036588   0
497   442058428   0
498   442080272   0
497   442102108   0
499   442123948   0
498   442145788   0
497   442167628   0
498   442189468   0
498   442211308   0
498   442233148   0
497   442254988   0
497   442276828   0
497   442298668   0
499   442320508   0
497   442342348   0
498   442364188   0
496   442386028   0
497   442407868   0
498   442429708   0
497   442451548   0
497   442473388   0
497   442495228   0
497   442517068   0
497   442538908   0
497   442560748   0
497   442582588   0
496   442604428   0
498   442626268   0
497   442648108   0
498   442669948   0
497   442691788   0
498   442713628   0
497   442735468   0
498   442757308   0
499   442779148   0
497   442800988   0
497   442822828   0
497   442844668   0
497   442866508   0
498   442888348   0
500   442910188   0
498   442932028   0
497   442953868   0
497   442975708   0
497   442997548   0
497   443019388   0
498   443041228   0
496   443063068   0
499   443084908   0
497   443106748   0
499   443128588   0
497   443150428   0
498   443172268   0
497   443194108   0
498   443215948   0
497   443237788   0
497   443259628   0
497   443281468   0
497   443303308   0
497   443325148   0
497   443346988   0
500   443368828   0
498   443390668   0
498   443412508   0
497   443434348   0
497   443456188   0
497   443478032   0
497   443499868   0
497   443521708   0
497   443543548   0
497   443565388   0
497   443587228   0
497   443609068   0
497   443630908   0
497   443652748   0
497   443674588   0
496   443696428   0
497   443718268   0
496   443740108   0
497   443761948   0
497   443783788   0
497   443805628   0
497   443827468   0
496   443849308   0
496   443871148   0
496   443892988   0
496   443914828   0
496   443936668   0
496   443958508   0
497   443980348   0
497   444002188   0
496   444024028   0
497   444045868   0
496   444067708   0
496   444089548   0
497   444111388   0
497   444133228   0
497   444155068   0
497   444176908   0
497   444198748   0
496   444220588   0
497   444242428   0
497   444264268   0
498   444286108   0
497   444307948   0
497   444329788   0
497   444351628   0
497   444373468   0
497   444395308   0
497   444417148   0
497   444438988   0
496   444460828   0
497   444482668   0
497   444504508   0
496   444526348   0
497   444548188   0
496   444570028   0
497   444591868   0
496   444613708   0
497   444635548   0
497   444657388   0
496   444679228   0
497   444701068   0
496   444722908   0
497   444744748   0
497   444766588   0
496   444788428   0
496   444810268   0
497   444832108   0
496   444853948   0
496   444875792   0
497   444897628   0
497   444919468   0
496   444941308   0
497   444963148   0
496   444984988   0
497   445006828   0
496   445028668   0
496   445050508   0
496   445072348   0
497   445094188   0
497   445116028   0
497   445137868   0
496   445159708   0
496   445181548   0
497   445203388   0
496   445225228   0
497   445247068   0
496   445268908   0
496   445290748   0
497   445312588   0
496   445334428   0
497   445356268   0
496   445378108   0
496   445399948   0
496   445421788   0
496   445443628   0
496   445465468   0
496   445487308   0
496   445509148   0
497   445530988   0
497   445552828   0
497   445574668   0
497   445596508   0
497   445618348   0
498   445640188   0
498   445662028   0
498   445683868   0
497   445705708   0
497   445727548   0
498   445749388   0
497   445771228   0
497   445793068   0
498   445814908   0
503   445836748   0
497   445858588   0
497   445880428   0
497   445902268   0
497   445924108   0
496   445945948   0
497   445967788   0
496   445989628   0
496   446011468   0
497   446033308   0
497   446055148   0
497   446076988   0
497   446098828   0
497   446120668   0
497   446142508   0
496   446164348   0
497   446186188   0
496   446208028   0
497   446229868   0
497   446251708   0
497   446273552   0
498   446295388   0
497   446317228   0
496   446339068   0
497   446360908   0
496   446382748   0
496   446404588   0
497   446426428   0
497   446448268   0
496   446470108   0
496   446491948   0
497   446513788   0
497   446535628   0
496   446557468   0
497   446579308   0
496   446601148   0
499   446622988   0
496   446644828   0
496   446666668   0
496   446688508   0
497   446710348   0
496   446732188   0
497   446754028   0
496   446775868   0
497   446797708   0
496   446819548   0
496   446841388   0
496   446863228   0
497   446885068   0
497   446906908   0
497   446928748   0
497   446950588   0
496   446972428   0
496   446994268   0
496   447016108   0
496   447037948   0
496   447059788   0
496   447081628   0
497   447103468   0
497   447125308   0
496   447147148   0
497   447168988   0
496   447190828   0
497   447212668   0
496   447234508   0
496   447256348   0
497   447278188   0
496   447300028   0
497   447321868   0
496   447343708   0
496   447365548   0
495   447387388   0
496   447409228   0
496   447431068   0
496   447452908   0
496   447474748   0
497   447496588   0
496   447518428   0
495   447540268   0
496   447562108   0
496   447583948   0
496   447605788   0
496   447627628   0
496   447649468   0
497   447671312   0
496   447693148   0
496   447714988   0
497   447736828   0
497   447758668   0
497   447780508   0
496   447802348   0
497   447824188   0
496   447846028   0
497   447867868   0
497   447889708   0
496   447911548   0
496   447933388   0
497   447955228   0
497   447977068   0
496   447998908   0
496   448020748   0
497   448042588   0
495   448064428   0
496   448086268   0
496   448108108   0
496   448129948   0
497   448151788   0
497   448173628   0
496   448195468   0
496   448217308   0
496   448239148   0
496   448260988   0
496   448282828   0
496   448304668   0
496   448326508   0
496   448348348   0
496   448370188   0
496   448392028   0
496   448413868   0
497   448435708   0
496   448457548   0
496   448479388   0
496   448501228   0
497   448523068   0
496   448544908   0
496   448566748   0
496   448588588   0
496   448610428   0
496   448632268   0
496   448654108   0
496   448675948   0
496   448697788   0
496   448719628   0
497   448741468   0
497   448763308   0
496   448785148   0
496   448806988   0
496   448828828   0
497   448850668   0
496   448872508   0
496   448894348   0
497   448916188   0
496   448938028   0
497   448959868   0
496   448981708   0
497   449003548   0
497   449025388   0
497   449047228   0
497   449069072   0
497   449090908   0
497   449112748   0
496   449134588   0
496   449156428   0
497   449178268   0
497   449200108   0
497   449221948   0
497   449243788   0
497   449265628   0
497   449287468   0
497   449309308   0
498   449331148   0
497   449352988   0
497   449374828   0
496   449396668   0
497   449418508   0
497   449440348   0
496   449462188   0
497   449484028   0
497   449505868   0
497   449527708   0
496   449549548   0
497   449571388   0
497   449593228   0
496   449615068   0
496   449636908   0
496   449658748   0
497   449680588   0
496   449702428   0
497   449724268   0
497   449746108   0
497   449767948   0
497   449789788   0
496   449811628   0
497   449833468   0
496   449855308   0
498   449877148   0
496   449898988   0
497   449920828   0
497   449942668   0
496   449964508   0
498   449986348   0
501   450008188   0
496   450030028   0
497   450051868   0
497   450073708   0
496   450095548   0
497   450117388   0
499   450139228   0
497   450161068   0
496   450182908   0
497   450204748   0
497   450226588   0
496   450248428   0
496   450270268   0
496   450292108   0
496   450313948   0
497   450335788   0
496   450357628   0
496   450379468   0
496   450401308   0
497   450423148   0
497   450444988   0
498   450466832   0
497   450488668   0
498   450510508   0
498   450532348   0
497   450554188   0
497   450576028   0
497   450597868   0
499   450619708   0
497   450641548   0
497   450663388   0
497   450685228   0
497   450707068   0
497   450728908   0
497   450750748   0
497   450772588   0
497   450794428   0
497   450816268   0
497   450838108   0
498   450859948   0
497   450881788   0
497   450903628   0
497   450925468   0
497   450947308   0
497   450969148   0
497   450990988   1
502   451012828   1
503   451034668   1
499   451056508   1
500   451078348   1
500   451100188   1
499   451122028   1
499   451143868   1
499   451165708   1
499   451187548   1
499   451209388   1
499   451231228   1
499   451253068   1
498   451274908   1
499   451296748   1
499   451318588   1
497   451340428   1
498   451362268   1
497   451384108   1
498   451405948   1
498   451427788   1
496   451449628   1
497   451471468   1
496   451493308   1
497   451515148   1
497   451536988   1
497   451558828   1
497   451580668   1
496   451602508   1
496   451624348   1
496   451646188   1
497   451668028   1
496   451689868   1
496   451711708   1
497   451733548   1
496   451755388   1
497   451777228   1
496   451799068   1
496   451820908   1
496   451842748   1
496   451864592   1
496   451886428   1
496   451908268   1
496   451930108   1
496   451951948   1
497   451973788   1
496   451995628   1
496   452017468   1
496   452039308   1
496   452061148   1
496   452082988   1
496   452104828   1
496   452126668   1
496   452148508   1
496   452170348   1
496   452192188   1
496   452214028   1
496   452235868   1
496   452257708   1
496   452279548   1
496   452301388   1
495   452323228   1
496   452345068   1
496   452366908   1
496   452388748   1
496   452410588   1
496   452432428   1
496   452454268   1
495   452476108   1
495   452497948   1
497   452519788   1
495   452541628   1
496   452563468   1
496   452585308   1
495   452607148   1
496   452628988   1
496   452650828   1
496   452672668   1
496   452694508   1
495   452716348   1
496   452738188   1
496   452760028   1
496   452781868   1
496   452803708   1
495   452825548   1
496   452847388   1
496   452869228   1
496   452891068   1
495   452912908   1
495   452934748   1
496   452956588   1
496   452978428   1
495   453000268   1
496   453022108   1
496   453043948   1
496   453065788   1
496   453087628   1
496   453109468   1
496   453131308   1
496   453153148   1
496   453174988   1
496   453196828   1
496   453218668   1
496   453240508   1
496   453262352   1
496   453284188   1
497   453306028   1
496   453327868   1
496   453349708   1
496   453371548   1
496   453393388   1
496   453415228   1
496   453437068   1
496   453458908   1
496   453480748   1
496   453502588   1
495   453524428   1
496   453546268   1
496   453568108   1
496   453589948   1
496   453611788   1
496   453633628   1
496   453655468   1
496   453677308   1
496   453699148   1
496   453720988   1
496   453742828   1
496   453764668   1
496   453786508   0
491   453808348   0
492   453830188   0
491   453852028   0
493   453873868   0
493   453895708   0
494   453917548   0
494   453939388   0
494   453961228   0
498   453983068   0
496   454004908   0
495   454026748   0
495   454048588   0
496   454070428   0
496   454092268   0
496   454114108   0
496   454135948   0
496   454157788   0
496   454179628   0
496   454201468   0
496   454223308   0
497   454245148   0
496   454266988   0
496   454288828   0
499   454310668   0
496   454332508   0
496   454354348   0
497   454376188   0
496   454398028   0
497   454419868   0
496   454441708   0
496   454463548   0
496   454485388   0
497   454507228   0
497   454529068   0
496   454550908   0
496   454572748   0
497   454594588   0
496   454616428   0
497   454638268   0
497   454660112   0
496   454681948   0
496   454703788   0
496   454725628   0
496   454747468   0
497   454769308   0
496   454791148   0
496   454812988   0
496   454834828   0
496   454856668   0
496   454878508   0
497   454900348   0
497   454922188   0
496   454944028   0
497   454965868   0
497   454987708   0
497   455009548   0
497   455031388   0
498   455053228   0
497   455075068   0
497   455096908   0
498   455118748   0
497   455140588   0
497   455162428   0
497   455184268   0
497   455206108   0
497   455227948   0
497   455249788   0
497   455271628   0
497   455293468   0
497   455315308   0
497   455337148   0
499   455358988   0
497   455380828   0
497   455402668   0
497   455424508   0
497   455446348   0
497   455468188   0
497   455490028   0
497   455511868   0
497   455533708   0
497   455555548   0
496   455577388   0
498   455599228   0
498   455621068   0
497   455642908   0
497   455664748   0
497   455686588   0
498   455708428   0
498   455730268   0
498   455752108   0
497   455773948   0
497   455795788   0
498   455817628   0
497   455839468   0
497   455861308   0
497   455883148   0
497   455904988   0
497   455926828   0
498   455948668   0
498   455970508   0
497   455992348   0
497   456014188   0
497   456036028   0
497   456057872   0
497   456079708   0
497   456101548   0
496   456123388   0
497   456145228   0
498   456167068   0
497   456188908   0
497   456210748   0
497   456232588   0
497   456254428   0
497   456276268   0
497   456298108   0
497   456319948   0
497   456341788   0
496   456363628   0
496   456385468   0
497   456407308   0
497   456429148   0
496   456450988   0
497   456472828   0
497   456494668   0
497   456516508   0
496   456538348   0
497   456560188   0
496   456582028   0
496   456603868   0
496   456625708   0
497   456647548   0
496   456669388   0
496   456691228   0
496   456713068   0
497   456734908   0
497   456756748   0
497   456778588   0
496   456800428   0
497   456822268   0
497   456844108   0
496   456865948   0
497   456887788   0
497   456909628   0
496   456931468   0
496   456953308   0
495   456975148   0
496   456996988   0
497   457018828   0
496   457040668   0
498   457062508   0
499   457084348   0
502   457106188   0
504   457128028   0
508   457149868   0
514   457171708   0
519   457193548   0
523   457215388   0
524   457237228   0
524   457259068   0
524   457280908   0
519   457302748   0
519   457324588   0
519   457346428   0
518   457368268   0
518   457390108   0
519   457411948   0
519   457433788   0
521   457455632   0
523   457477468   0
521   457499308   0
521   457521148   0
519   457542988   0
519   457564828   0
515   457586668   0
515   457608508   0
513   457630348   0
511   457652188   0
510   457674028   0
510   457695868   0
508   457717708   0
507   457739548   0
507   457761388   0
505   457783228   0
504   457805068   0
505   457826908   0
504   457848748   0
502   457870588   0
503   457892428   0
500   457914268   0
499   457936108   0
500   457957948   0
500   457979788   0
500   458001628   0
499   458023468   0
499   458045308   0
498   458067148   0
499   458088988   0
497   458110828   0
497   458132668   0
497   458154508   0
497   458176348   0
497   458198188   0
496   458220028   0
496   458241868   0
497   458263708   0
498   458285548   0
496   458307388   0
496   458329228   0
495   458351068   0
495   458372908   0
496   458394748   0
496   458416588   0
496   458438428   0
495   458460268   0
496   458482108   0
496   458503948   0
495   458525788   0
495   458547628   0
495   458569468   0
495   458591308   0
494   458613148   0
494   458634988   0
493   458656828   0
494   458678668   0
493   458700508   0
492   458722348   0
493   458744188   0
494   458766028   0
492   458787868   0
492   458809708   0
492   458831548   0
492   458853392   0
492   458875228   0
492   458897068   0
492   458918908   0
492   458940748   0
491   458962588   0
492   458984428   0
492   459006268   0
492   459028108   0
492   459049948   0
492   459071788   0
492   459093628   0
492   459115468   0
491   459137308   0
493   459159148   0
492   459180988   0
492   459202828   0
492   459224668   0
492   459246508   0
494   459268348   0
492   459290188   0
492   459312028   0
493   459333868   0
492   459355708   0
494   459377548   0
493   459399388   0
494   459421228   0
494   459443068   0
495   459464908   0
496   459486748   0
496   459508588   0
496   459530428   0
496   459552268   0
495   459574108   0
496   459595948   0
496   459617788   0
496   459639628   0
499   459661468   0
497   459683308   0
497   459705148   0
499   459726988   0
499   459748828   0
499   459770668   0
500   459792508   0
503   459814348   0
508   459836188   0
511   459858028   0
515   459879868   0
519   459901708   0
524   459923548   0
529   459945388   0
531   459967228   0
530   459989068   0
527   460010908   0
526   460032748   0
524   460054588   0
522   460076428   0
519   460098268   0
518   460120108   0
516   460141948   0
512   460163788   0
509   460185628   0
506   460207468   0
501   460229308   0
496   460251152   0
492   460272988   0
492   460294828   0
491   460316668   0
487   460338508   0
484   460360348   0
483   460382188   0
486   460404028   0
487   460425868   0
487   460447708   0
486   460469548   0
493   460491388   0
487   460513228   0
487   460535068   0
488   460556908   0
487   460578748   0
491   460600588   0
489   460622428   0
491   460644268   0
491   460666108   0
496   460687948   0
501   460709788   0
505   460731628   0
510   460753468   0
512   460775308   0
510   460797148   0
513   460818988   0
515   460840828   0
515   460862668   0
513   460884508   0
509   460906348   0
505   460928188   0
501   460950028   0
495   460971868   0
494   460993708   0
488   461015548   0
487   461037388   0
485   461059228   0
484   461081068   0
483   461102908   0
483   461124748   0
483   461146588   0
483   461168428   0
483   461190268   0
483   461212108   0
484   461233948   0
483   461255788   0
482   461277628   0
481   461299468   0
481   461321308   0
480   461343148   0
486   461364988   0
481   461386828   0
480   461408668   0
480   461430508   0
480   461452348   0
481   461474188   0
483   461496028   0
482   461517868   0
481   461539708   0
481   461561548   0
483   461583388   0
484   461605228   0
487   461627068   0
486   461648912   0
489   461670748   0
487   461692588   0
491   461714428   0
491   461736268   0
491   461758108   0
490   461779948   0
492   461801788   0
489   461823628   0
492   461845468   0
492   461867308   0
491   461889148   0
491   461910988   0
491   461932828   0
491   461954668   0
491   461976508   0
492   461998348   0
491   462020188   0
492   462042028   0
491   462063868   0
492   462085708   0
491   462107548   0
491   462129388   0
491   462151228   0
491   462173068   0
492   462194908   0
489   462216748   1
496   462238588   1
496   462260428   1
494   462282268   1
494   462304108   1
492   462325948   1
492   462347788   1
492   462369628   1
492   462391468   1
491   462413308   1
492   462435148   1
491   462456988   1
491   462478828   1
491   462500668   1
492   462522508   1
492   462544348   1
491   462566188   1
492   462588028   1
494   462609868   1
492   462631708   1
489   462653548   1
489   462675388   1
489   462697228   1
492   462719068   1
491   462740908   1
489   462762748   1
491   462784588   1
492   462806428   1
492   462828268   1
491   462850108   1
488   462871948   1
491   462893788   1
491   462915628   1
490   462937468   1
490   462959308   1
492   462981148   1
492   463002988   1
492   463024828   1
493   463046672   1
495   463068508   1
498   463090348   1
499   463112188   1
500   463134028   1
502   463155868   1
505   463177708   1
507   463199548   1
510   463221388   1
510   463243228   1
513   463265068   1
514   463286908   1
516   463308748   1
518   463330588   1
519   463352428   1
519   463374268   1
521   463396108   1
524   463417948   1
526   463439788   1
526   463461628   1
526   463483468   1
530   463505308   1
527   463527148   1
527   463548988   1
527   463570828   1
527   463592668   1
524   463614508   1
524   463636348   1
520   463658188   1
515   463680028   1
514   463701868   1
507   463723708   1
504   463745548   1
508   463767388   1
502   463789228   1
499   463811068   1
492   463832908   1
487   463854748   1
492   463876588   1
486   463898428   1
480   463920268   1
487   463942108   1
487   463963948   1
480   463985788   1
478   464007628   1
478   464029468   1
478   464051308   1
476   464073148   1
478   464094988   1
480   464116828   1
478   464138668   1
480   464160508   1
480   464182348   1
480   464204188   1
480   464226028   1
484   464247868   1
482   464269708   1
481   464291548   1
484   464313388   1
481   464335228   1
483   464357068   1
481   464378908   1
484   464400748   1
484   464422588   1
487   464444432   1
487   464466268   1
480   464488108   0
481   464509948   0
483   464531788   0
482   464553628   0
484   464575468   0
485   464597308   0
487   464619148   0
487   464640988   0
489   464662828   0
492   464684668   0
494   464706508   0
495   464728348   0
496   464750188   0
498   464772028   0
497   464793868   0
499   464815708   0
500   464837548   0
500   464859388   0
507   464881228   0
501   464903068   0
502   464924908   0
503   464946748   0
503   464968588   0
502   464990428   0
500   465012268   0
499   465034108   0
499   465055948   0
499   465077788   0
500   465099628   0
499   465121468   0
501   465143308   0
499   465165148   0
500   465186988   0
496   465208828   0
499   465230668   0
500   465252508   0
499   465274348   0
500   465296188   0
501   465318028   0
501   465339868   0
503   465361708   0
504   465383548   0
504   465405388   0
505   465427228   0
505   465449068   0
504   465470908   0
504   465492748   0
504   465514588   0
504   465536428   0
504   465558268   0
504   465580108   0
505   465601948   0
504   465623788   0
504   465645628   0
504   465667468   0
504   465689308   0
505   465711148   0
504   465732988   0
505   465754828   0
504   465776668   0
509   465798508   0
503   465820348   0
503   465842192   0
504   465864028   0
503   465885868   0
504   465907708   0
504   465929548   0
504   465951388   0
504   465973228   0
504   465995068   0
502   466016908   0
502   466038748   0
500   466060588   0
502   466082428   0
501   466104268   0
501   466126108   0
501   466147948   0
500   466169788   0
499   466191628   0
499   466213468   0
500   466235308   0
499   466257148   0
499   466278988   0
499   466300828   0
499   466322668   0
499   466344508   0
499   466366348   0
499   466388188   0
499   466410028   0
499   466431868   0
499   466453708   0
499   466475548   0
499   466497388   0
499   466519228   0
500   466541068   0
500   466562908   0
500   466584748   0
500   466606588   1
505   466628428   1
504   466650268   1
503   466672108   1
503   466693948   1
501   466715788   1
500   466737628   1
500   466759468   1
502   466781308   1
503   466803148   1
502   466824988   1
504   466846828   1
507   466868668   1
504   466890508   1
496   466912348   1
489   466934188   1
481   466956028   1
475   466977868   1
472   466999708   1
468   467021548   1
468   467043388   1
467   467065228   1
463   467087068   1
465   467108908   1
465   467130748   1
466   467152588   1
466   467174428   1
467   467196268   1
465   467218108   1
467   467239952   1
467   467261788   1
467   467283628   1
467   467305468   1
467   467327308   1
467   467349148   1
467   467370988   1
467   467392828   1
467   467414668   1
467   467436508   1
467   467458348   1
467   467480188   1
468   467502028   1
467   467523868   1
467   467545708   1
467   467567548   1
469   467589388   1
468   467611228   1
468   467633068   1
467   467654908   1
468   467676748   1
468   467698588   0
464   467720428   0
465   467742268   0
465   467764108   0
465   467785948   0
466   467807788   0
467   467829628   0
467   467851468   0
467   467873308   0
467   467895148   0
468   467916988   0
468   467938828   0
470   467960668   0
472   467982508   0
471   468004348   0
472   468026188   0
472   468048028   0
475   468069868   0
476   468091708   0
477   468113548   0
479   468135388   0
479   468157228   0
480   468179068   0
479   468200908   0
482   468222748   0
480   468244588   0
483   468266428   0
486   468288268   0
485   468310108   0
486   468331948   0
487   468353788   0
490   468375628   0
491   468397468   0
493   468419308   0
494   468441148   0
493   468462988   0
493   468484828   0
490   468506668   0
492   468528508   0
493   468550348   0
493   468572188   0
494   468594028   0
494   468615868   0
495   468637712   0
493   468659548   0
495   468681388   0
496   468703228   0
497   468725068   0
496   468746908   0
498   468768748   0
497   468790588   0
496   468812428   0
497   468834268   0
496   468856108   0
496   468877948   0
496   468899788   0
495   468921628   0
494   468943468   0
494   468965308   0
493   468987148   0
494   469008988   0
494   469030828   0
494   469052668   0
494   469074508   0
496   469096348   0
494   469118188   0
495   469140028   0
495   469161868   0
496   469183708   0
496   469205548   0
497   469227388   0
498   469249228   0
499   469271068   0
500   469292908   0
502   469314748   0
502   469336588   0
504   469358428   0
507   469380268   0
504   469402108   0
505   469423948   0
504   469445788   0
503   469467628   0
504   469489468   0
503   469511308   0
503   469533148   0
500   469554988   0
500   469576828   0
499   469598668   0
499   469620508   0
496   469642348   0
494   469664188   0
494   469686028   0
494   469707868   0
496   469729708   0
494   469751548   0
495   469773388   0
496   469795228   0
496   469817068   0
497   469838908   0
499   469860748   0
499   469882588   0
500   469904428   0
501   469926268   0
501   469948108   0
503   469969948   0
505   469991788   0
505   470013628   0
507   470035472   0
508   470057308   0
508   470079148   0
508   470100988   0
509   470122828   0
509   470144668   0
509   470166508   0
509   470188348   0
509   470210188   0
509   470232028   0
508   470253868   0
507   470275708   0
508   470297548   0
508   470319388   0
508   470341228   0
507   470363068   0
507   470384908   0
505   470406748   0
505   470428588   0
505   470450428   0
504   470472268   0
504   470494108   0
502   470515948   0
500   470537788   0
499   470559628   0
497   470581468   0
496   470603308   0
495   470625148   0
494   470646988   0
493   470668828   0
491   470690668   0
492   470712508   0
489   470734348   0
490   470756188   0
490   470778028   0
490   470799868   0
489   470821708   0
489   470843548   0
487   470865388   0
487   470887228   0
487   470909068   0
486   470930908   0
486   470952748   0
486   470974588   0
487   470996428   0
489   471018268   0
491   471040108   0
492   471061948   0
493   471083788   0
494   471105628   0
495   471127468   0
496   471149308   0
496   471171148   0
497   471192988   0
496   471214828   0
498   471236668   0
498   471258508   0
499   471280348   0
500   471302188   0
500   471324028   0
502   471345868   0
505   471367708   0
505   471389548   0
505   471411388   0
506   471433232   0
509   471455068   0
514   471476908   0
518   471498748   0
519   471520588   0
520   471542428   0
521   471564268   0
521   471586108   0
707   471607948   0
878   471629788   0
856   471651628   0
838   471673468   0
756   471695308   0
649   471717148   0
475   471738988   0
461   471760828   0
459   471782668   0
460   471804508   0
463   471826348   0
465   471848188   0
469   471870028   0
472   471891868   0
476   471913708   0
480   471935548   0
482   471957388   0
481   471979228   0
484   472001068   0
487   472022908   0
486   472044748   0
683   472066588   0
808   472088428   0
703   472110268   0
783   472132108   0
770   472153948   0
757   472175788   0
744   472197628   0
732   472219468   0
721   472241308   0
448   472263148   0
380   472284988   0
376   472306828   0
380   472328668   0
387   472350508   0
391   472372348   0
397   472394188   0
402   472416028   0
408   472437868   0
406   472459708   0
760   472481548   0
743   472503388   0
728   472525228   0
713   472547068   0
703   472568908   0
691   472590748   0
681   472612588   0
671   472634428   0
635   472656268   0
536   472678108   0
423   472699948   0
395   472721788   0
499   472743628   0
486   472765468   0
438   472787308   0
413   472809148   0
403   472830992   0
242   472852828   0
275   472874668   0
311   472896508   0
300   472918348   0
284   472940188   0
315   472962028   0
350   472983868   0
418   473005708   0
481   473027548   0
770   473049388   0
752   473071228   0
736   473093068   0
721   473114908   0
707   473136748   0
695   473158588   0
399   473180428   0
376   473202268   0
369   473224108   0
371   473245948   0
374   473267788   0
380   473289628   0
385   473311468   0
391   473333308   0
396   473355148   0
401   473376988   0
407   473398828   0
412   473420668   0
418   473442508   0
422   473464348   0
425   473486188   0
429   473508028   0
433   473529868   0
436   473551708   0
440   473573548   0
444   473595388   0
447   473617228   0
449   473639068   0
451   473660908   0
453   473682748   0
454   473704588   0
456   473726428   0
457   473748268   0
457   473770108   0
457   473791948   0
455   473813788   0
455   473835628   0
455   473857468   0
455   473879308   0
455   473901148   0
457   473922988   0
16   473943788   0
47   473964588   0
44   473985388   0
28   474006188   0
17   474026988   0
14   474047788   0
13   474068588   0
13   474089388   0
13   474110188   0
12   474130988   0
12   474151788   0
13   474172588   0
11   474193388   0
12   474214188   0
12   474234988   0
12   474255788   0
12   474276588   0
12   474297388   0
12   474318188   0
11   474338988   0
9   474358748   0
9   474378508   0
12   474399308   0
9   474419068   0
10   474439868   0
10   474460668   0
9   474480428   0
10   474501228   0
8   474520988   0
10   474541788   0
8   474561552   0
8   474581308   0
9   474601068   0
8   474620828   0
7   474640588   0
7   474660348   0
7   474680108   0
7   474699868   0
7   474719628   0
7   474739388   0
7   474759148   0
7   474778908   0
7   474798668   0
7   474818428   0
8   474838188   0
7   474857948   0
7   474877708   0
7   474897468   0
6   474917228   0
7   474936988   0
7   474956748   0
6   474976508   0
6   474996268   0
6   475016028   0
6   475035788   0
7   475055548   0
6   475075308   0
7   475095068   0
6   475114828   0
6   475134588   0
6   475154348   0
7   475174108   0
7   475193868   0
6   475213628   0
6   475233388   0
6   475253148   0
7   475272908   0
7   475292668   0
5   475312428   0
5   475332188   0
7   475351948   0
7   475371708   0
5   475391468   0
7   475411228   0
4   475430988   0
4   475450748   0
6   475470508   0
4   475490268   0
7   475510028   0
4   475529788   0
4   475549548   0
6   475569308   0
5   475589068   0
4   475608828   0
4   475628588   0
6   475648348   0
4   475668108   0
6   475687868   0
4   475707628   0
6   475727388   0
3   475747148   0
4   475766908   0
4   475786668   0
6   475806428   0
5   475826192   0
6   475845948   0
6   475865708   0
3   475885468   0
3   475905228   0
4   475924988   0
3   475944748   0
5   475964508   0
3   475984268   0
3   476004028   0
5   476023788   0
3   476043548   0
3   476063308   0
5   476083068   0
4   476102828   0
3   476122588   0
3   476142348   0
4   476162108   0
3   476181868   0
2   476201628   0
3   476221388   0
4   476241148   0
4   476260908   0
2   476280668   0
3   476300428   0
3   476320188   0
4   476339948   0
2   476359708   0
3   476379468   0
2   476399228   0
3   476418988   0
4   476438748   0
2   476458508   0
3   476478268   0
3   476498028   0
4   476517788   0
4   476537548   0
2   476557308   0
4   476577068   0
2   476596828   0
2   476616588   0
3   476636348   0
2   476656108   0
1   476675868   0
2   476695628   0
1   476715388   0
3   476735148   0
3   476754908   0
2   476774668   0
1   476794428   0
3   476814188   0
1   476833948   0
3   476853708   0
1   476873468   0
1   476893228   0
2   476912988   0
1   476932748   0
3   476952508   0
1   476972268   0
1   476992028   0
1   477011788   0
1   477031548   0
1   477051308   0
1   477071068   0
1   477090832   0
3   477110588   0
3   477130348   0
2   477150108   0
1   477169868   0
2   477189628   0
1   477209388   0
3   477229148   0
1   477248908   0
3   477268668   0
1   477288428   0
1   477308188   0
2   477327948   0
1   477347708   0
2   477367468   0
1   477387228   0
1   477406988   0
1   477426748   0
1   477446508   0
1   477466268   0
1   477486028   0
2   477505788   0
2   477525548   0
1   477545308   0
2   477565068   0
2   477584828   0
2   477604588   0
2   477624348   0
1   477644108   0
0   477663868   0
1   477683628   0
0   477703388   0
1   477723148   0
2   477742908   0
1   477762668   0
2   477782428   0
0   477802188   0
0   477821948   0
1   477841708   0
1   477861468   0
2   477881228   0
2   477900988   0
0   477920748   0
0   477940508   0
1   477960268   0
1   477980028   0
0   477999788   0
0   478019548   0
2   478039308   0
0   478059068   0
1   478078828   0
1   478098588   0
0   478118348   0
0   478138108   0
2   478157868   0
0   478177628   0
1   478197388   0
1   478217148   0
0   478236908   0
1   478256668   0
0   478276428   0
1   478296188   0
0   478315948   0
0   478335708   0
0   478355472   0
0   478375228   0
0   478394988   0
0   478414748   0
1   478434508   0
1   478454268   0
0   478474028   0
1   478493788   0
0   478513548   0
0   478533308   0
1   478553068   0
0   478572828   0
0   478592588   0
1   478612348   0
0   478632108   0
0   478651868   0
0   478671628   0
0   478691388   0
0   478711148   0
0   478730908   0
1   478750668   0
0   478770428   0
1   478790188   0
0   478809948   0
0   478829708   0
0   478849468   0
0   478869228   0
0   478888988   0
0   478908748   0
0   478928508   0
0   478948268   0
1   478968028   0
0   478987788   0
0   479007548   0
0   479027308   0
0   479047068   0
0   479066828   0
0   479086588   0
0   479106348   0
0   479126108   0
0   479145868   0
1   479165628   0
0   479185388   0
1   479205148   0
0   479224908   0
0   479244668   0
0   479264428   0
0   479284188   0
0   479303948   0
0   479323708   0
0   479343468   0
1   479363228   0
1   479382988   0
0   479402748   0
0   479422508   0
0   479442268   0
1   479462028   0
0   479481788   0
0   479501548   0
0   479521308   0
0   479541068   0
0   479560828   0
0   479580588   0
1   479600348   0
0   479620112   0
1   479639868   0
0   479659628   0
0   479679388   0
0   479699148   0
0   479718908   0
0   479738668   0
0   479758428   0
0   479778188   0
0   479797948   0
0   479817708   0
0   479837468   0
0   479857228   0
0   479876988   0
0   479896748   0
0   479916508   0
0   479936268   0
0   479956028   0
0   479975788   0
0   479995548   0
0   480015308   0
0   480035068   0
0   480054828   0
0   480074588   0
0   480094348   0
0   480114108   0
0   480133868   0
0   480153628   0
0   480173388   0
0   480193148   0
0   480212908   0
0   480232668   0
0   480252428   0
0   480272188   0
0   480291948   0
0   480311708   0
0   480331468   0
0   480351228   0
0   480370988   0
0   480390748   0
0   480410508   0
0   480430268   0
0   480450028   0
0   480469788   0
0   480489548   0
0   480509308   0
0   480529068   0
0   480548828   0
0   480568588   0
0   480588348   0
0   480608108   0
0   480627868   0
0   480647628   0
0   480667388   0
0   480687148   0
0   480706908   0
0   480726668   0
0   480746428   0
0   480766188   0
0   480785948   0
0   480805708   0
0   480825468   0
0   480845228   0
0   480864988   0
0   480884752   0
0   480904508   0
0   480924268   0
0   480944028   0
0   480963788   0
0   480983548   0
0   481003308   0
0   481023068   0
0   481042828   0
0   481062588   0
0   481082348   0
0   481102108   0
0   481121868   0
0   481141628   0
0   481161388   0
0   481181148   0
0   481200908   0
0   481220668   0
0   481240428   0
0   481260188   0
0   481279948   0
0   481299708   0
0   481319468   0
0   481339228   0
0   481358988   0
0   481378748   0
0   481398508   0
0   481418268   0
0   481438028   0
0   481457788   0
0   481477548   0
0   481497308   0
0   481517068   0
0   481536828   0
0   481556588   0
0   481576348   0
0   481596108   0
0   481615868   0
0   481635628   0
0   481655388   0
0   481675148   0
0   481694908   0
0   481714668   0
0   481734428   0
0   481754188   0
0   481773948   0
0   481793708   0
0   481813468   0
0   481833228   0
0   481852988   0
0   481872748   0
0   481892508   0
0   481912268   0
0   481932028   0
0   481951788   0
0   481971548   0
0   481991308   0
0   482011068   0
0   482030828   0
0   482050588   0
0   482070348   0
0   482090108   0
0   482109868   0
0   482129628   0
0   482149392   0
0   482169148   0
0   482188908   0
0   482208668   0
0   482228428   0
0   482248188   0
0   482267948   0
0   482287708   0
0   482307468   0
0   482327228   0
0   482346988   0
0   482366748   0
0   482386508   0
0   482406268   0
0   482426028   0
0   482445788   0
0   482465548   0
0   482485308   0
0   482505068   0
0   482524828   0
0   482544588   0
0   482564348   0
0   482584108   0
0   482603868   0
0   482623628   0
0   482643388   0
0   482663148   0
0   482682908   0
0   482702668   0
0   482722428   0
0   482742188   0
0   482761948   0
0   482781708   0
0   482801468   0
0   482821228   0
0   482840988   0
0   482860748   0
0   482880508   0
0   482900268   0
0   482920028   0
0   482939788   0
0   482959548   0
0   482979308   0
0   482999068   0
0   483018828   0
0   483038588   0
0   483058348   0
0   483078108   0
0   483097868   0
0   483117628   0
0   483137388   0
0   483157148   0
0   483176908   0
0   483196668   0
0   483216428   0
0   483236188   0
0   483255948   0
0   483275708   0
0   483295468   0
0   483315228   0
0   483334988   0
0   483354748   0
0   483374508   0
0   483394268   0
0   483414032   0
0   483433788   0
0   483453548   0
91   483474348   0
135   483496188   0
178   483518028   0
216   483539868   0
251   483561708   0
281   483583548   0
287   483605388   0
296   483627228   0
304   483649068   0
315   483670908   0
326   483692748   0
335   483714588   0
342   483736428   0
351   483758268   0
358   483780108   0
364   483801948   0
372   483823788   0
380   483845628   0
386   483867468   0
393   483889308   0
398   483911148   0
404   483932988   0
412   483954828   0
415   483976668   0
420   483998508   0
426   484020348   0
431   484042188   0
435   484064028   0
440   484085868   0
441   484107708   0
445   484129548   0
449   484151388   0
451   484173228   0
455   484195068   0
459   484216908   0
462   484238748   0
463   484260588   0
465   484282428   0
468   484304268   0
470   484326108   0
471   484347948   0
473   484369788   0
475   484391628   0
476   484413468   0
477   484435308   0
477   484457148   0
479   484478992   0
480   484500828   0
482   484522668   0
483   484544508   0
483   484566348   0
484   484588188   0
484   484610028   0
485   484631868   0
486   484653708   0
487   484675548   0
487   484697388   0
489   484719228   0
488   484741068   0
489   484762908   0
489   484784748   0
491   484806588   0
491   484828428   0
492   484850268   0
492   484872108   0
492   484893948   0
492   484915788   0
492   484937628   0
492   484959468   0
491   484981308   0
492   485003148   0
488   485024988   0
492   485046828   0
493   485068668   0
493   485090508   0
493   485112348   0
495   485134188   0
494   485156028   0
492   485177868   0
492   485199708   0
492   485221548   0
495   485243388   0
494   485265228   0
494   485287068   0
494   485308908   0
492   485330748   0
494   485352588   0
495   485374428   0
496   485396268   0
495   485418108   0
496   485439948   0
497   485461788   0
496   485483628   0
497   485505468   0
496   485527308   0
496   485549148   0
495   485570988   0
495   485592828   0
494   485614668   0
494   485636508   0
495   485658348   0
495   485680188   0
494   485702028   0
494   485723868   0
495   485745708   0
494   485767548   0
494   485789388   0
494   485811228   0
494   485833068   0
494   485854908   0
494   485876752   0
492   485898588   0
494   485920428   0
494   485942268   0
494   485964108   0
493   485985948   0
494   486007788   0
494   486029628   0
494   486051468   0
495   486073308   0
496   486095148   0
496   486116988   0
496   486138828   0
496   486160668   0
496   486182508   0
496   486204348   0
496   486226188   0
497   486248028   0
496   486269868   0
496   486291708   0
496   486313548   0
498   486335388   0
496   486357228   0
496   486379068   0
496   486400908   0
496   486422748   0
499   486444588   0
497   486466428   0
498   486488268   0
497   486510108   0
499   486531948   0
497   486553788   0
500   486575628   0
497   486597468   0
499   486619308   0
498   486641148   0
497   486662988   0
499   486684828   0
499   486706668   0
497   486728508   0
500   486750348   0
501   486772188   0
502   486794028   0
500   486815868   0
500   486837708   0
500   486859548   0
502   486881388   0
500   486903228   0
500   486925068   0
500   486946908   0
502   486968748   0
501   486990588   0
500   487012428   0
503   487034268   0
501   487056108   0
502   487077948   0
502   487099788   0
502   487121628   0
501   487143468   0
501   487165308   0
499   487187148   0
499   487208988   0
499   487230828   0
501   487252668   0
499   487274512   0
499   487296348   0
498   487318188   0
498   487340028   0
497   487361868   0
496   487383708   0
496   487405548   0
496   487427388   0
495   487449228   0
493   487471068   0
493   487492908   0
491   487514748   0
491   487536588   0
491   487558428   0
493   487580268   0
491   487602108   0
490   487623948   0
490   487645788   0
492   487667628   0
492   487689468   0
491   487711308   0
491   487733148   0
491   487754988   0
489   487776828   0
488   487798668   0
487   487820508   0
487   487842348   0
487   487864188   0
487   487886028   0
486   487907868   0
486   487929708   0
485   487951548   0
486   487973388   0
487   487995228   0
487   488017068   0
487   488038908   0
487   488060748   0
487   488082588   0
487   488104428   0
487   488126268   0
487   488148108   0
487   488169948   0
488   488191788   0
489   488213628   0
491   488235468   0
492   488257308   0
492   488279148   0
495   488300988   0
493   488322828   0
495   488344668   0
495   488366508   0
496   488388348   0
496   488410188   0
495   488432028   0
497   488453868   0
497   488475708   0
498   488497548   0
497   488519388   0
498   488541228   0
498   488563068   0
497   488584908   0
498   488606748   0
497   488628588   0
497   488650428   0
499   488672272   0
498   488694108   0
497   488715948   0
498   488737788   0
496   488759628   0
497   488781468   0
496   488803308   0
496   488825148   0
497   488846988   0
496   488868828   0
497   488890668   0
497   488912508   0
497   488934348   0
497   488956188   0
497   488978028   0
496   488999868   0
497   489021708   0
498   489043548   0
498   489065388   0
497   489087228   0
498   489109068   0
497   489130908   0
497   489152748   0
498   489174588   0
497   489196428   0
497   489218268   0
497   489240108   0
496   489261948   0
497   489283788   0
497   489305628   0
497   489327468   0
497   489349308   0
496   489371148   0
496   489392988   0
496   489414828   0
496   489436668   0
498   489458508   0
496   489480348   0
496   489502188   0
497   489524028   0
497   489545868   0
497   489567708   0
499   489589548   0
496   489611388   0
497   489633228   0
496   489655068   0
497   489676908   0
495   489698748   0
496   489720588   0
496   489742428   0
496   489764268   0
496   489786108   0
496   489807948   0
495   489829788   0
496   489851628   0
496   489873468   0
496   489895308   0
496   489917148   0
496   489938988   0
497   489960828   0
496   489982668   0
495   490004508   0
496   490026348   0
496   490048188   0
496   490070032   0
496   490091868   0
496   490113708   0
497   490135548   0
496   490157388   0
496   490179228   0
496   490201068   0
496   490222908   0
496   490244748   0
496   490266588   0
496   490288428   0
497   490310268   0
496   490332108   0
495   490353948   0
494   490375788   0
496   490397628   0
494   490419468   0
494   490441308   0
495   490463148   0
495   490484988   0
496   490506828   0
497   490528668   0
497   490550508   0
498   490572348   0
497   490594188   0
496   490616028   0
495   490637868   0
496   490659708   0
494   490681548   0
494   490703388   0
494   490725228   0
494   490747068   0
495   490768908   0
492   490790748   0
493   490812588   0
494   490834428   0
493   490856268   0
496   490878108   0
494   490899948   0
494   490921788   0
493   490943628   0
495   490965468   0
492   490987308   0
493   491009148   0
492   491030988   0
493   491052828   0
493   491074668   0
494   491096508   0
492   491118348   0
494   491140188   0
493   491162028   0
492   491183868   0
493   491205708   0
494   491227548   0
493   491249388   0
494   491271228   0
494   491293068   0
495   491314908   0
495   491336748   0
493   491358588   0
492   491380428   0
493   491402268   0
494   491424108   0
492   491445948   0
492   491467792   0
494   491489628   0
501   491511468   0
492   491533308   0
494   491555148   0
494   491576988   0
494   491598828   0
498   491620668   0
494   491642508   0
496   491664348   0
497   491686188   0
491   491708028   0
492   491729868   0
488   491751708   0
494   491773548   0
498   491795388   0
494   491817228   0
500   491839068   0
504   491860908   0
504   491882748   0
497   491904588   0
502   491926428   0
500   491948268   0
504   491970108   0
499   491991948   0
489   492013788   0
491   492035628   0
491   492057468   0
493   492079308   0
492   492101148   0
504   492122988   0
495   492144828   0
487   492166668   0
486   492188508   0
485   492210348   0
505   492232188   0
499   492254028   0
493   492275868   0
495   492297708   0
496   492319548   0
497   492341388   0
496   492363228   0
496   492385068   0
497   492406908   0
495   492428748   0
490   492450588   0
494   492472428   0
495   492494268   0
489   492516108   0
493   492537948   0
496   492559788   0
497   492581628   0
499   492603468   0
497   492625308   0
496   492647148   0
495   492668988   0
502   492690828   0
496   492712668   0
498   492734508   0
496   492756348   0
489   492778188   0
498   492800028   0
497   492821868   0
499   492843708   0
498   492865552   0
498   492887388   0
497   492909228   0
497   492931068   0
496   492952908   0
497   492974748   0
497   492996588   0
498   493018428   0
496   493040268   0
499   493062108   0
499   493083948   0
501   493105788   0
501   493127628   0
503   493149468   0
503   493171308   0
502   493193148   0
504   493214988   0
504   493236828   0
502   493258668   0
502   493280508   0
503   493302348   0
503   493324188   0
504   493346028   0
500   493367868   0
500   493389708   0
501   493411548   0
501   493433388   0
499   493455228   0
499   493477068   0
500   493498908   0
499   493520748   0
499   493542588   0
499   493564428   0
497   493586268   0
497   493608108   0
495   493629948   0
494   493651788   0
494   493673628   0
492   493695468   0
493   493717308   0
494   493739148   0
494   493760988   0
495   493782828   0
495   493804668   0
496   493826508   0
496   493848348   0
496   493870188   0
497   493892028   0
498   493913868   0
499   493935708   0
499   493957548   0
499   493979388   0
499   494001228   0
498   494023068   0
501   494044908   0
501   494066748   0
501   494088588   0
500   494110428   0
501   494132268   0
498   494154108   0
499   494175948   0
498   494197788   0
498   494219628   0
497   494241468   0
497   494263312   0
499   494285148   0
497   494306988   0
499   494328828   0
498   494350668   0
499   494372508   0
499   494394348   0
500   494416188   0
499   494438028   0
499   494459868   0
498   494481708   0
499   494503548   0
500   494525388   0
499   494547228   0
498   494569068   0
499   494590908   0
498   494612748   0
498   494634588   0
498   494656428   0
497   494678268   0
497   494700108   0
496   494721948   0
495   494743788   0
492   494765628   0
492   494787468   0
491   494809308   0
491   494831148   0
491   494852988   0
491   494874828   0
491   494896668   0
490   494918508   0
491   494940348   0
491   494962188   0
492   494984028   0
491   495005868   0
490   495027708   0
492   495049548   0
492   495071388   0
494   495093228   0
496   495115068   0
497   495136908   0
496   495158748   0
498   495180588   0
497   495202428   0
499   495224268   0
497   495246108   0
496   495267948   0
497   495289788   0
497   495311628   0
496   495333468   0
498   495355308   0
497   495377148   0
497   495398988   0
497   495420828   0
497   495442668   0
497   495464508   0
497   495486348   0
497   495508188   0
498   495530028   0
497   495551868   0
497   495573708   0
498   495595548   0
497   495617388   0
497   495639228   0
497   495661072   0
497   495682908   0
498   495704748   0
499   495726588   0
497   495748428   0
499   495770268   0
498   495792108   0
497   495813948   0
497   495835788   0
497   495857628   0
496   495879468   0
497   495901308   0
499   495923148   0
498   495944988   0
498   495966828   0
499   495988668   0
498   496010508   0
495   496032348   0
498   496054188   0
497   496076028   0
497   496097868   0
498   496119708   0
497   496141548   0
504   496163388   0
497   496185228   0
499   496207068   0
497   496228908   0
497   496250748   0
497   496272588   0
497   496294428   0
497   496316268   0
496   496338108   0
497   496359948   0
496   496381788   0
496   496403628   0
498   496425468   0
497   496447308   0
497   496469148   0
497   496490988   0
498   496512828   0
499   496534668   0
496   496556508   0
498   496578348   0
497   496600188   0
496   496622028   0
498   496643868   0
497   496665708   0
498   496687548   0
498   496709388   0
497   496731228   0
498   496753068   0
499   496774908   0
499   496796748   0
497   496818588   0
498   496840428   0
499   496862268   0
499   496884108   0
497   496905948   0
499   496927788   0
497   496949628   0
498   496971468   0
497   496993308   0
497   497015148   0
498   497036988   0
496   497058832   0
498   497080668   0
498   497102508   0
497   497124348   0
497   497146188   0
498   497168028   0
497   497189868   0
497   497211708   0
496   497233548   0
497   497255388   0
497   497277228   0
497   497299068   0
496   497320908   0
496   497342748   0
497   497364588   0
498   497386428   0
497   497408268   0
498   497430108   0
498   497451948   0
498   497473788   0
498   497495628   0
497   497517468   0
497   497539308   0
497   497561148   0
497   497582988   0
496   497604828   0
496   497626668   0
497   497648508   0
497   497670348   0
496   497692188   0
496   497714028   0
497   497735868   0
497   497757708   0
497   497779548   0
496   497801388   0
496   497823228   0
496   497845068   0
497   497866908   0
496   497888748   0
496   497910588   0
497   497932428   0
497   497954268   0
496   497976108   0
496   497997948   0
497   498019788   0
496   498041628   0
497   498063468   0
497   498085308   0
497   498107148   0
497   498128988   0
497   498150828   0
497   498172668   0
497   498194508   0
497   498216348   0
497   498238188   0
496   498260028   0
496   498281868   0
497   498303708   0
497   498325548   0
496   498347388   0
496   498369228   0
497   498391068   0
497   498412908   0
496   498434748   0
497   498456592   0
496   498478428   0
497   498500268   0
496   498522108   0
496   498543948   0
497   498565788   0
496   498587628   0
497   498609468   0
497   498631308   0
496   498653148   0
496   498674988   0
496   498696828   0
496   498718668   0
496   498740508   0
497   498762348   0
497   498784188   0
496   498806028   0
497   498827868   0
496   498849708   0
496   498871548   0
496   498893388   0
496   498915228   0
496   498937068   0
495   498958908   0
496   498980748   0
496   499002588   0
496   499024428   0
495   499046268   0
496   499068108   0
495   499089948   0
496   499111788   0
495   499133628   0
496   499155468   0
495   499177308   0
496   499199148   0
496   499220988   0
495   499242828   0
496   499264668   0
496   499286508   0
496   499308348   0
496   499330188   0
497   499352028   0
496   499373868   0
496   499395708   0
496   499417548   0
496   499439388   0
496   499461228   0
496   499483068   0
496   499504908   0
496   499526748   0
496   499548588   0
496   499570428   0
496   499592268   0
496   499614108   0
496   499635948   0
496   499657788   0
497   499679628   0
496   499701468   0
496   499723308   0
496   499745148   0
496   499766988   0
496   499788828   0
496   499810668   0
496   499832508   0
496   499854352   0
495   499876188   0
496   499898028   0
495   499919868   0
496   499941708   0
496   499963548   0
495   499985388   0
496   500007228   0
496   500029068   0
494   500050908   0
496   500072748   0
496   500094588   0
496   500116428   0
496   500138268   0
496   500160108   0
504   500181948   0
499   500203788   0
495   500225628   0
497   500247468   0
504   500269308   0
513   500291148   0
494   500312988   0
494   500334828   0
496   500356668   0
495   500378508   0
487   500400348   0
496   500422188   0
505   500444028   0
513   500465868   0
492   500487708   0
495   500509548   0
496   500531388   0
496   500553228   0
502   500575068   0
497   500596908   0
496   500618748   0
496   500640588   0
504   500662428   0
500   500684268   0
499   500706108   0
500   500727948   0
504   500749788   0
509   500771628   0
511   500793468   0
502   500815308   0
512   500837148   0
508   500858988   0
510   500880828   0
507   500902668   0
522   500924508   0
512   500946348   0
523   500968188   0
508   500990028   0
521   501011868   0
499   501033708   0
512   501055548   0
513   501077388   0
504   501099228   0
517   501121068   0
521   501142908   0
519   501164748   0
515   501186588   0
519   501208428   0
514   501230268   0
512   501252112   0
510   501273948   0
516   501295788   0
504   501317628   0
502   501339468   0
502   501361308   0
511   501383148   0
496   501404988   0
496   501426828   0
499   501448668   0
502   501470508   0
495   501492348   0
494   501514188   0
493   501536028   0
499   501557868   0
491   501579708   0
487   501601548   0
492   501623388   0
498   501645228   0
492   501667068   0
493   501688908   0
493   501710748   0
496   501732588   0
492   501754428   0
492   501776268   0
489   501798108   0
492   501819948   0
492   501841788   0
492   501863628   0
501   501885468   0
491   501907308   0
492   501929148   0
494   501950988   0
488   501972828   0
492   501994668   0
490   502016508   0
493   502038348   0
491   502060188   0
491   502082028   0
492   502103868   0
492   502125708   0
494   502147548   0
491   502169388   0
492   502191228   0
492   502213068   0
493   502234908   0
492   502256748   0
492   502278588   0
492   502300428   0
492   502322268   0
493   502344108   0
493   502365948   0
492   502387788   0
494   502409628   0
491   502431468   0
492   502453308   0
492   502475148   0
496   502496988   0
492   502518828   0
492   502540668   0
492   502562508   0
495   502584348   0
492   502606188   0
492   502628028   0
495   502649872   0
494   502671708   0
493   502693548   0
493   502715388   0
494   502737228   0
492   502759068   0
494   502780908   0
496   502802748   0
496   502824588   0
493   502846428   0
494   502868268   0
494   502890108   0
494   502911948   0
489   502933788   0
491   502955628   0
494   502977468   0
495   502999308   0
490   503021148   0
492   503042988   0
492   503064828   0
491   503086668   0
495   503108508   0
492   503130348   0
494   503152188   0
494   503174028   0
492   503195868   0
492   503217708   0
489   503239548   0
493   503261388   0
487   503283228   0
492   503305068   0
492   503326908   0
491   503348748   0
492   503370588   0
492   503392428   0
489   503414268   0
492   503436108   0
492   503457948   0
492   503479788   0
491   503501628   0
492   503523468   0
492   503545308   0
492   503567148   0
493   503588988   0
492   503610828   0
492   503632668   0
492   503654508   0
492   503676348   0
493   503698188   0
494   503720028   0
494   503741868   0
494   503763708   0
494   503785548   0
494   503807388   0
494   503829228   0
495   503851068   0
495   503872908   0
496   503894748   0
495   503916588   0
496   503938428   0
496   503960268   0
496   503982108   0
496   504003948   0
496   504025788   0
496   504047632   0
496   504069468   0
496   504091308   0
496   504113148   0
496   504134988   0
496   504156828   0
496   504178668   0
498   504200508   0
496   504222348   0
496   504244188   0
496   504266028   0
496   504287868   0
496   504309708   0
496   504331548   0
496   504353388   0
496   504375228   0
496   504397068   0
496   504418908   0
496   504440748   0
496   504462588   0
496   504484428   0
495   504506268   0
495   504528108   0
495   504549948   0
495   504571788   0
496   504593628   0
496   504615468   0
495   504637308   0
495   504659148   0
496   504680988   0
492   504702828   0
496   504724668   0
495   504746508   0
496   504768348   0
495   504790188   0
494   504812028   0
499   504833868   0
495   504855708   0
496   504877548   0
496   504899388   0
496   504921228   0
496   504943068   0
496   504964908   0
496   504986748   0
496   505008588   0
497   505030428   0
496   505052268   0
496   505074108   0
496   505095948   0
496   505117788   0
497   505139628   0
496   505161468   0
497   505183308   0
497   505205148   0
497   505226988   0
498   505248828   0
499   505270668   0
496   505292508   0
496   505314348   0
496   505336188   0
496   505358028   0
496   505379868   0
