EMGValue   Timestamp   TrueFlexState
140   84989804   0
140   84991504   0
140   84993204   0
140   84994904   0
141   84996604   0
141   84998304   0
142   85000004   0
142   85001704   0
143   85003404   0
143   85005104   0
143   85006804   0
143   85008504   0
143   85010204   0
143   85011904   0
143   85013604   0
144   85015304   0
145   85017004   0
145   85018704   0
144   85020404   0
145   85022104   0
145   85023804   0
145   85025504   0
146   85027204   0
147   85028904   0
147   85030604   0
147   85032304   0
147   85034004   0
147   85035704   0
147   85037404   0
147   85039112   0
148   85040804   0
148   85042504   0
148   85044204   0
149   85045904   0
149   85047604   0
148   85049304   0
148   85051004   0
149   85052704   0
149   85054404   0
150   85056104   0
150   85057804   0
151   85059504   0
150   85061204   0
150   85062904   0
150   85064604   0
151   85066304   0
151   85068004   0
151   85069704   0
152   85071404   0
152   85073104   0
152   85074804   0
152   85076504   0
152   85078204   0
152   85079904   0
152   85081604   0
152   85083304   0
152   85085004   0
153   85086704   0
152   85088404   0
152   85090104   0
153   85091804   0
153   85093504   0
152   85095204   0
152   85096904   0
153   85098604   0
153   85100304   0
153   85102004   0
153   85103704   0
153   85105404   0
153   85107104   0
154   85108804   0
153   85110504   0
153   85112204   0
153   85113904   0
153   85115604   0
154   85117304   0
153   85119004   0
153   85120704   0
153   85122404   0
153   85124112   0
153   85125804   0
153   85127504   0
153   85129204   0
154   85130904   0
154   85132604   0
153   85134304   0
155   85136004   0
154   85137704   0
155   85139404   0
154   85141104   0
155   85142804   0
155   85144504   0
155   85146204   0
155   85147904   0
155   85149604   0
156   85151304   0
156   85153004   0
156   85154704   0
156   85156404   0
156   85158104   0
157   85159804   0
157   85161504   0
157   85163204   0
157   85164904   0
157   85166604   0
157   85168304   0
157   85170004   0
156   85171704   0
158   85173404   0
157   85175104   0
157   85176804   0
157   85178504   0
157   85180204   0
158   85181904   0
157   85183604   0
158   85185304   0
157   85187004   0
157   85188704   0
158   85190404   0
158   85192104   0
158   85193804   0
157   85195504   0
158   85197204   0
158   85198904   0
158   85200604   0
158   85202304   0
159   85204004   0
159   85205704   0
158   85207404   0
158   85209104   0
158   85210804   0
159   85212504   0
159   85214204   0
158   85215904   0
159   85217604   0
159   85219304   0
159   85221004   0
159   85222704   0
159   85224404   0
159   85226104   0
159   85227804   0
159   85229504   0
159   85231204   0
159   85232904   0
159   85234604   0
159   85236304   0
159   85238004   0
159   85239704   0
159   85241404   0
159   85243104   0
159   85244804   0
159   85246504   0
159   85248204   0
159   85249904   0
159   85251604   0
159   85253304   0
159   85255004   0
159   85256704   0
159   85258404   0
159   85260104   0
159   85261804   0
159   85263504   0
159   85265204   0
159   85266904   0
159   85268604   0
159   85270304   0
159   85272004   0
159   85273704   0
159   85275404   0
159   85277104   0
159   85278804   0
159   85280504   0
158   85282204   0
159   85283904   0
159   85285604   0
159   85287304   0
159   85289004   0
159   85290704   0
158   85292404   0
159   85294104   0
158   85295804   0
159   85297504   0
159   85299212   0
159   85300904   0
159   85302604   0
158   85304304   0
159   85306004   0
159   85307704   0
158   85309404   0
158   85311104   0
159   85312804   0
158   85314504   0
159   85316204   0
158   85317904   0
158   85319604   0
158   85321304   0
158   85323004   0
159   85324704   0
158   85326404   0
158   85328104   0
158   85329804   0
158   85331504   0
158   85333204   0
158   85334904   0
158   85336604   0
158   85338304   0
158   85340004   0
158   85341704   0
158   85343404   0
157   85345104   0
157   85346804   0
156   85348504   0
157   85350204   0
157   85351904   0
156   85353604   0
157   85355304   0
157   85357004   0
156   85358704   0
156   85360404   0
156   85362104   0
156   85363804   0
156   85365504   0
156   85367204   0
156   85368904   0
156   85370604   0
156   85372304   0
156   85374004   0
156   85375704   0
156   85377404   0
156   85379104   0
156   85380804   0
155   85382504   0
155   85384208   0
156   85385904   0
155   85387604   0
155   85389304   0
155   85391004   0
155   85392704   0
156   85394404   0
155   85396104   0
155   85397804   0
156   85399504   0
155   85401204   0
155   85402904   0
154   85404604   0
154   85406304   0
155   85408004   0
155   85409704   0
155   85411404   0
155   85413104   0
155   85414804   0
154   85416504   0
155   85418204   0
155   85419904   0
154   85421604   0
154   85423304   0
155   85425004   0
155   85426704   0
155   85428404   0
153   85430104   0
153   85431804   0
154   85433504   0
154   85435204   0
155   85436904   0
153   85438604   0
154   85440304   0
154   85442004   0
154   85443704   0
154   85445404   0
154   85447104   0
153   85448804   0
153   85450504   0
154   85452204   0
153   85453904   0
153   85455604   0
153   85457304   0
153   85459004   0
153   85460704   0
153   85462404   0
153   85464104   0
153   85465804   0
153   85467504   0
152   85469204   0
152   85470904   0
152   85472604   0
152   85474312   0
152   85476004   0
152   85477704   0
153   85479404   0
152   85481104   0
152   85482804   0
152   85484504   0
152   85486204   0
153   85487904   0
152   85489604   0
152   85491304   0
152   85493004   0
153   85494704   0
153   85496404   0
153   85498104   0
152   85499804   0
153   85501504   0
153   85503204   0
152   85504904   0
152   85506604   0
153   85508304   0
153   85510004   0
153   85511704   0
152   85513404   0
152   85515104   0
153   85516804   0
153   85518504   0
153   85520204   0
153   85521904   0
153   85523604   0
153   85525304   0
153   85527004   0
153   85528704   0
153   85530404   0
153   85532104   0
153   85533804   0
153   85535504   0
153   85537204   0
153   85538904   0
154   85540604   0
153   85542304   0
153   85544004   0
153   85545704   0
154   85547404   0
154   85549104   0
153   85550804   0
153   85552504   0
153   85554204   0
153   85555904   0
153   85557604   0
154   85559312   0
153   85561004   0
153   85562704   0
152   85564404   0
154   85566104   0
153   85567804   0
153   85569504   0
154   85571204   0
154   85572904   0
153   85574604   0
153   85576304   0
154   85578004   0
153   85579704   0
153   85581404   0
153   85583104   0
153   85584804   0
153   85586504   0
154   85588204   0
153   85589904   0
153   85591604   0
153   85593304   0
153   85595004   0
153   85596704   0
152   85598404   0
153   85600104   0
153   85601804   0
153   85603504   0
152   85605204   0
153   85606904   0
153   85608604   0
152   85610304   0
153   85612004   0
153   85613704   0
152   85615404   0
152   85617104   0
152   85618804   0
152   85620504   0
153   85622204   0
152   85623904   0
153   85625604   0
152   85627304   0
152   85629004   0
152   85630704   0
152   85632404   0
152   85634104   0
152   85635804   0
152   85637504   0
152   85639204   0
152   85640904   0
152   85642604   0
153   85644304   0
153   85646004   0
153   85647704   0
152   85649404   0
152   85651104   0
152   85652804   0
152   85654504   0
152   85656204   0
152   85657904   0
153   85659604   0
152   85661304   0
153   85663004   0
152   85664704   0
153   85666404   0
152   85668104   0
152   85669804   0
152   85671504   0
153   85673204   0
152   85674904   0
152   85676604   0
153   85678304   0
153   85680004   0
152   85681704   0
153   85683404   0
153   85685104   0
153   85686804   0
153   85688504   0
153   85690204   0
152   85691904   0
153   85693604   0
153   85695304   0
153   85697004   0
153   85698704   0
153   85700404   0
153   85702104   0
153   85703804   0
153   85705504   0
153   85707204   0
153   85708904   0
154   85710604   0
155   85712304   0
154   85714004   0
155   85715704   0
155   85717404   0
155   85719104   0
155   85720804   0
156   85722504   0
156   85724204   0
156   85725904   0
156   85727604   0
156   85729304   0
156   85731004   0
157   85732704   0
157   85734412   0
157   85736104   0
156   85737804   0
157   85739504   0
157   85741204   0
158   85742904   0
157   85744604   0
157   85746304   0
157   85748004   0
157   85749704   0
158   85751404   0
159   85753104   0
158   85754804   0
159   85756504   0
158   85758204   0
159   85759904   0
159   85761604   0
159   85763304   0
159   85765004   0
159   85766704   0
159   85768404   0
159   85770104   0
159   85771804   0
160   85773504   0
160   85775204   0
159   85776904   0
159   85778604   0
159   85780304   0
159   85782004   0
159   85783704   0
159   85785404   0
159   85787104   0
159   85788804   0
159   85790504   0
160   85792204   0
159   85793904   0
159   85795604   0
160   85797304   0
159   85799004   0
160   85800704   0
160   85802404   0
159   85804104   0
159   85805804   0
159   85807504   0
159   85809204   0
160   85810904   0
159   85812604   0
159   85814304   0
159   85816004   0
159   85817704   0
159   85819408   0
159   85821104   0
159   85822804   0
159   85824504   0
159   85826204   0
159   85827904   0
159   85829604   0
159   85831304   0
159   85833004   0
159   85834704   0
159   85836404   0
159   85838104   0
159   85839804   0
159   85841504   0
159   85843204   0
159   85844904   0
159   85846604   0
159   85848304   0
158   85850004   0
159   85851704   0
158   85853404   0
159   85855104   0
159   85856804   0
158   85858504   0
159   85860204   0
158   85861904   0
158   85863604   0
159   85865304   0
158   85867004   0
158   85868704   0
158   85870404   0
159   85872104   0
158   85873804   0
158   85875504   0
158   85877204   0
158   85878904   0
158   85880604   0
158   85882304   0
158   85884004   0
158   85885704   0
158   85887404   0
158   85889104   0
158   85890804   0
158   85892504   0
158   85894204   0
158   85895904   0
158   85897604   0
158   85899304   0
157   85901004   0
158   85902704   0
158   85904404   0
157   85906104   0
158   85907804   0
157   85909512   0
156   85911204   0
156   85912904   0
156   85914604   0
156   85916304   0
156   85918004   0
156   85919704   0
156   85921404   0
156   85923104   0
156   85924804   0
156   85926504   0
155   85928204   0
155   85929904   0
154   85931604   0
153   85933304   0
154   85935004   0
154   85936704   0
154   85938404   0
153   85940104   0
153   85941804   0
153   85943504   0
152   85945204   0
152   85946904   0
152   85948604   0
152   85950304   0
152   85952004   0
152   85953704   0
152   85955404   0
151   85957104   0
151   85958804   0
151   85960504   0
151   85962204   0
151   85963904   0
151   85965604   0
151   85967304   0
151   85969004   0
150   85970704   0
150   85972404   0
150   85974104   0
149   85975804   0
149   85977504   0
149   85979204   0
148   85980904   0
148   85982604   0
147   85984304   0
147   85986004   0
147   85987704   0
147   85989404   0
147   85991104   0
147   85992804   0
147   85994512   0
147   85996204   0
145   85997904   0
145   85999604   0
145   86001304   0
145   86003004   0
145   86004704   0
145   86006404   0
145   86008104   0
144   86009804   0
144   86011504   0
143   86013204   0
144   86014904   0
144   86016604   0
143   86018304   0
143   86020004   0
143   86021704   0
92   98896912   0
92   98898524   0
92   98900140   0
92   98901756   0
92   98903368   0
92   98904984   0
92   98906600   0
92   98908216   0
92   98909828   0
92   98911444   0
92   98913060   0
93   98914676   0
93   98916288   0
92   98917904   0
92   98919520   0
92   98921136   0
92   98922748   0
92   98924364   0
92   98925980   0
93   98927596   0
92   98929208   0
92   98930824   0
92   98932440   0
92   98934056   0
92   98935668   0
92   98937284   0
92   98938900   0
92   98940516   0
93   98942128   0
92   98943744   0
92   98945360   0
92   98946976   0
93   98948588   0
92   98950204   0
92   98951820   0
92   98953436   0
92   98955048   0
92   98956664   0
92   98958280   0
93   98959896   0
92   98961508   0
92   98963124   0
92   98964740   0
92   98966356   0
92   98967968   0
92   98969584   0
92   98971200   0
92   98972816   0
92   98974428   0
92   98976044   0
92   98977660   0
92   98979276   0
93   98980888   0
93   98982504   0
92   98984120   0
93   98985736   0
92   98987348   0
92   98988964   0
92   98990580   0
92   98992196   0
92   98993808   0
92   98995424   0
92   98997040   0
92   98998656   0
92   99000268   0
92   99001884   0
92   99003500   0
92   99005116   0
92   99006728   0
92   99008344   0
92   99009960   0
92   99011576   0
92   99013188   0
92   99014804   0
92   99016420   0
92   99018036   0
92   99019648   0
92   99021264   0
93   99022880   0
93   99024496   0
92   99026108   0
93   99027724   0
92   99029340   0
93   99030956   0
93   99032568   0
92   99034184   0
93   99035800   0
93   99037416   0
93   99039028   0
92   99040644   0
92   99042260   0
93   99043876   0
93   99045488   0
92   99047104   0
92   99048720   0
93   99050336   0
92   99051948   0
92   99053564   0
92   99055180   0
92   99056796   0
92   99058408   0
92   99060024   0
92   99061640   0
93   99063256   0
92   99064868   0
92   99066484   0
92   99068100   0
92   99069716   0
92   99071328   0
92   99072944   0
91   99074560   0
91   99076176   0
92   99077788   0
91   99079404   0
92   99081020   0
92   99082636   0
92   99084248   0
92   99085864   0
92   99087480   0
92   99089096   0
92   99090708   0
92   99092324   0
91   99093940   0
92   99095560   0
92   99097168   0
92   99098784   0
92   99100400   0
92   99102016   0
91   99103628   0
92   99105244   0
91   99106860   0
93   99108476   0
91   99110088   0
91   99111704   0
91   99113320   0
92   99114936   0
92   99116548   0
91   99118164   0
92   99119780   0
92   99121396   0
92   99123008   0
92   99124624   0
92   99126240   0
92   99127856   0
92   99129468   0
93   99131084   0
92   99132700   0
93   99134316   0
92   99135928   0
92   99137552   0
93   99139160   0
92   99140776   0
92   99142388   0
93   99144004   0
92   99145620   0
94   99147236   0
92   99148848   0
92   99150464   0
93   99152080   0
94   99153696   0
93   99155308   0
93   99156924   0
93   99158540   0
94   99160156   0
93   99161768   0
93   99163384   0
92   99165000   0
93   99166616   0
92   99168228   0
93   99169844   0
92   99171460   0
93   99173076   0
92   99174688   0
93   99176304   0
92   99177920   0
94   99179536   0
92   99181148   0
93   99182764   0
93   99184380   0
92   99185996   0
93   99187608   0
93   99189224   0
92   99190840   0
93   99192456   0
92   99194068   0
92   99195684   0
93   99197300   0
92   99198916   0
93   99200528   0
93   99202144   0
92   99203760   0
92   99205376   0
92   99206988   0
92   99208604   0
93   99210220   0
92   99211836   0
92   99213448   0
92   99215064   0
93   99216680   0
93   99218296   0
92   99219908   0
92   99221524   0
92   99223140   0
92   99224756   0
92   99226368   0
92   99227984   0
92   99229600   0
92   99231216   0
93   99232828   0
92   99234444   0
92   99236060   0
93   99237676   0
92   99239288   0
92   99240904   0
92   99242520   0
93   99244136   0
92   99245748   0
92   99247364   0
93   99248980   0
94   99250596   0
92   99252208   0
92   99253824   0
92   99255440   0
93   99257056   0
93   99258668   0
93   99260284   0
92   99261900   0
92   99263516   0
93   99265128   0
92   99266744   0
92   99268360   0
93   99269976   0
93   99271588   0
92   99273204   0
92   99274820   0
93   99276436   0
92   99278048   0
92   99279664   0
93   99281280   0
93   99282896   0
93   99284508   0
92   99286124   0
92   99287740   0
92   99289356   0
92   99290968   0
93   99292584   0
92   99294200   0
92   99295816   0
92   99297428   0
92   99299044   0
92   99300660   0
93   99302276   0
92   99303888   0
92   99305504   0
92   99307120   0
93   99308736   0
92   99310348   0
92   99311964   0
92   99313580   0
92   99315196   0
92   99316808   0
93   99318424   0
92   99320040   0
93   99321656   0
92   99323268   0
93   99324884   0
92   99326500   0
93   99328116   0
92   99329728   0
92   99331344   0
93   99332960   0
92   99334576   0
92   99336188   0
92   99337804   0
92   99339420   0
93   99341036   0
91   99342648   0
92   99344264   0
92   99345880   0
93   99347496   0
92   99349108   0
92   99350724   0
93   99352340   0
93   99353956   0
93   99355568   0
92   99357184   0
92   99358800   0
93   99360416   0
92   99362028   0
92   99363644   0
92   99365260   0
92   99366876   0
92   99368488   0
92   99370104   0
92   99371720   0
92   99373336   0
92   99374948   0
92   99376564   0
92   99378188   0
92   99379796   0
92   99381408   0
92   99383024   0
92   99384640   0
92   99386256   0
92   99387868   0
93   99389484   0
92   99391100   0
92   99392716   0
93   99394328   0
92   99395944   0
92   99397560   0
93   99399176   0
93   99400788   0
92   99402404   0
92   99404020   0
93   99405636   0
92   99407248   0
92   99408864   0
92   99410480   0
93   99412096   0
92   99413708   0
93   99415324   0
92   99416940   0
92   99418556   0
92   99420176   0
92   99421784   0
93   99423400   0
93   99425016   0
92   99426628   0
92   99428244   0
92   99429860   0
93   99431476   0
92   99433088   0
92   99434704   0
93   99436320   0
93   99437936   0
92   99439548   0
92   99441164   0
93   99442780   0
93   99444396   0
92   99446008   0
93   99447624   0
93   99449240   0
92   99450856   0
92   99452468   0
93   99454084   0
92   99455700   0
92   99457316   0
92   99458928   0
92   99460544   0
92   99462160   0
93   99463776   0
93   99465388   0
92   99467004   0
94   99468620   0
93   99470236   0
92   99471848   0
92   99473464   0
93   99475080   0
93   99476696   0
92   99478308   0
92   99479924   0
92   99481540   0
94   99483156   0
93   99484768   0
93   99486384   0
93   99488000   0
93   99489616   0
92   99491228   0
93   99492844   0
93   99494460   0
92   99496076   0
92   99497688   0
92   99499304   0
93   99500920   0
93   99502536   0
93   99504148   0
92   99505764   0
92   99507380   0
92   99508996   0
92   99510608   0
92   99512224   0
92   99513840   0
92   99515456   0
92   99517068   0
93   99518684   0
92   99520300   0
92   99521916   0
92   99523528   0
92   99525144   0
92   99526760   0
91   99528376   0
91   99529988   0
92   99531604   0
92   99533220   0
92   99534836   0
92   99536448   0
91   99538064   0
92   99539680   0
92   99541296   0
92   99542908   0
92   99544524   0
92   99546140   0
92   99547756   0
92   99549368   0
92   99550984   0
92   99552600   0
92   99554216   0
92   99555828   0
92   99557444   0
92   99559060   0
93   99560676   0
92   99562288   0
92   99563904   0
92   99565520   0
92   99567136   0
92   99568748   0
92   99570364   0
92   99571980   0
92   99573596   0
91   99575208   0
91   99576824   0
91   99578440   0
91   99580056   0
91   99581668   0
92   99583284   0
91   99584900   0
92   99586516   0
91   99588128   0
91   99589744   0
91   99591360   0
92   99592976   0
92   99594588   0
92   99596204   0
92   99597820   0
92   99599436   0
92   99601048   0
92   99602664   0
91   99604280   0
91   99605896   0
91   99607508   0
92   99609124   0
91   99610740   0
92   99612356   0
91   99613968   0
91   99615584   0
92   99617200   0
92   99618820   0
92   99620428   0
92   99622044   0
92   99623660   0
91   99625276   0
92   99626888   0
92   99628504   0
92   99630120   0
93   99631736   0
92   99633348   0
92   99634964   0
92   99636580   0
92   99638196   0
92   99639808   0
91   99641424   0
92   99643040   0
92   99644656   0
91   99646268   0
92   99647884   0
92   99649500   0
93   99651116   0
92   99652728   0
92   99654344   0
92   99655960   0
92   99657576   0
93   99659188   0
92   99660812   0
92   99662420   0
92   99664036   0
92   99665648   0
92   99667264   0
92   99668880   0
93   99670496   0
92   99672108   0
92   99673724   0
92   99675340   0
92   99676956   0
92   99678568   0
92   99680184   0
92   99681800   0
92   99683416   0
93   99685028   0
92   99686644   0
92   99688260   0
93   99689876   0
92   99691488   0
92   99693104   0
92   99694720   0
93   99696336   0
92   99697948   0
93   99699564   0
92   99701180   0
92   99702800   0
92   99704408   0
92   99706024   0
92   99707640   0
92   99709256   0
92   99710868   0
92   99712484   0
92   99714100   0
92   99715716   0
92   99717328   0
92   99718944   0
92   99720560   0
93   99722176   0
92   99723788   0
92   99725404   0
92   99727020   0
92   99728636   0
91   99730248   0
92   99731864   0
92   99733480   0
93   99735096   0
92   99736708   0
91   99738324   0
92   99739940   0
92   99741556   0
92   99743168   0
92   99744784   0
91   99746400   0
92   99748016   0
92   99749628   0
92   99751244   0
92   99752860   0
92   99754476   0
92   99756088   0
92   99757704   0
92   99759320   0
92   99760936   0
91   99762548   0
92   99764164   0
92   99765780   0
93   99767396   0
92   99769008   0
92   99770624   0
92   99772240   0
92   99773856   0
91   99775468   0
92   99777084   0
91   99778700   0
92   99780316   0
91   99781928   0
92   99783544   0
91   99785160   0
92   99786776   0
91   99788388   0
91   99790004   0
91   99791620   0
91   99793236   0
92   99794848   0
92   99796464   0
92   99798080   0
92   99799696   0
92   99801308   0
92   99802924   0
91   99804540   0
91   99806156   0
91   99807768   0
91   99809384   0
91   99811000   0
91   99812616   0
91   99814228   0
92   99815844   0
92   99817460   0
92   99819076   0
92   99820688   0
91   99822304   0
92   99823920   0
92   99825536   0
92   99827148   0
92   99828764   0
92   99830380   0
92   99831996   0
92   99833608   0
92   99835224   0
92   99836840   0
93   99838456   0
92   99840068   0
92   99841684   0
92   99843300   0
92   99844916   0
93   99846528   0
92   99848144   0
92   99849760   0
92   99851376   0
92   99852988   0
91   99854604   0
92   99856220   0
92   99857836   0
92   99859448   0
92   99861064   0
92   99862680   0
92   99864296   0
92   99865908   0
92   99867524   0
92   99869140   0
92   99870756   0
92   99872368   0
92   99873984   0
92   99875600   0
92   99877216   0
92   99878828   0
92   99880444   0
92   99882060   0
93   99883676   0
92   99885288   0
92   99886904   0
92   99888520   0
93   99890136   0
93   99891748   0
92   99893364   0
93   99894980   0
92   99896596   0
92   99898208   0
93   99899824   0
93   99901444   0
92   99903056   0
93   99904668   0
92   99906284   0
92   99907900   0
93   99909516   0
92   99911128   0
92   99912744   0
93   99914360   0
93   99915976   0
93   99917588   0
92   99919204   0
92   99920820   0
92   99922436   0
92   99924048   0
92   99925664   0
92   99927280   0
93   99928896   0
92   99930508   0
92   99932124   0
92   99933740   0
93   99935356   0
93   99936968   0
93   99938584   0
92   99940200   0
93   99941816   0
92   99943436   0
92   99945044   0
93   99946660   0
93   99948276   0
93   99949888   0
92   99951504   0
92   99953120   0
92   99954736   0
92   99956348   0
92   99957964   0
92   99959580   0
93   99961196   0
93   99962808   0
92   99964424   0
92   99966040   0
93   99967656   0
93   99969268   0
93   99970884   0
93   99972500   0
93   99974116   0
92   99975728   0
92   99977344   0
92   99978960   0
93   99980576   0
92   99982188   0
92   99983804   0
92   99985424   0
94   99987036   0
93   99988648   0
92   99990264   0
92   99991880   0
93   99993496   0
93   99995108   0
92   99996724   0
92   99998340   0
92   99999956   0
93   100001568   0
92   100003268   0
92   100004968   0
93   100006668   0
93   100008368   0
92   100010068   0
92   100011768   0
93   100013468   0
93   100015168   0
93   100016868   0
92   100018568   0
92   100020268   0
93   100021968   0
92   100023668   0
92   100025368   0
92   100027068   0
92   100028768   0
92   100030476   0
92   100032168   0
92   100033868   0
93   100035568   0
93   100037268   0
93   100038968   0
93   100040668   0
92   100042368   0
92   100044068   0
92   100045768   0
93   100047468   0
92   100049168   0
92   100050868   0
92   100052568   0
93   100054268   0
92   100055968   0
92   100057668   0
93   100059368   0
92   100061068   0
93   100062768   0
93   100064468   0
93   100066168   0
94   100067868   0
93   100069568   0
92   100071268   0
92   100072968   0
93   100074668   0
93   100076368   0
93   100078068   0
92   100079768   0
93   100081468   0
92   100083168   0
92   100084868   0
92   100086568   0
93   100088268   0
93   100089968   0
92   100091668   0
93   100093368   0
92   100095068   0
93   100096768   0
92   100098468   0
92   100100168   0
92   100101868   0
92   100103568   0
92   100105268   0
93   100106968   0
93   100108668   0
92   100110368   0
92   100112068   0
92   100113768   0
92   100115472   0
93   100117168   0
93   100118868   0
93   100120568   0
93   100122268   0
93   100123968   0
92   100125668   0
92   100127368   0
93   100129068   0
92   100130768   0
92   100132468   0
93   100134168   0
93   100135868   0
92   100137568   0
92   100139268   0
93   100140968   0
92   100142668   0
93   100144368   0
93   100146068   0
92   100147768   0
93   100149468   0
92   100151168   0
92   100152868   0
93   100154568   0
92   100156268   0
92   100157968   0
92   100159668   0
92   100161368   0
93   100163068   0
93   100164768   0
92   100166468   0
93   100168168   0
92   100169868   0
94   100171568   0
93   100173268   0
93   100174968   0
93   100176668   0
94   100178368   0
94   100180068   0
94   100181768   0
94   100183468   0
94   100185168   0
95   100186868   0
94   100188568   0
94   100190268   0
95   100191968   0
95   100193668   0
95   100195368   0
95   100197068   0
95   100198768   0
96   100200468   0
96   100202168   0
96   100203868   0
96   100205576   0
96   100207268   0
96   100208968   0
96   100210668   0
96   100212368   0
96   100214068   0
96   100215768   0
97   100217468   0
96   100219168   0
96   100220868   0
96   100222568   0
96   100224268   0
96   100225968   0
96   100227668   0
97   100229368   0
97   100231068   0
97   100232768   0
97   100234468   0
97   100236168   0
97   100237868   0
97   100239568   0
96   100241268   0
97   100242968   0
97   100244668   0
97   100246368   0
96   100248068   0
97   100249768   0
96   100251468   0
97   100253168   0
96   100254868   0
96   100256568   0
96   100258268   0
96   100259968   0
96   100261668   0
96   100263368   0
96   100265068   0
96   100266768   0
96   100268468   0
96   100270168   0
96   100271868   0
96   100273568   0
96   100275268   0
96   100276968   0
96   100278668   0
96   100280368   0
95   100282068   0
96   100283768   0
95   100285468   0
96   100287168   0
95   100288868   0
95   100290576   0
95   100292268   0
94   100293968   0
94   100295668   0
94   100297368   0
94   100299068   0
94   100300768   0
93   100302468   0
94   100304168   0
92   100305868   0
92   100307568   0
92   100309268   0
92   100310968   0
92   100312668   0
92   100314368   0
92   100316068   0
92   100317768   0
92   100319468   0
92   100321168   0
92   100322868   0
92   100324568   0
92   100326268   0
92   100327968   0
92   100329668   0
92   100331368   0
91   100333068   0
92   100334768   0
91   100336468   0
92   100338168   0
91   100339868   0
91   100341568   0
91   100343268   0
91   100344968   0
91   100346668   0
91   100348368   0
91   100350068   0
91   100351768   0
89   100353468   0
90   100355168   0
89   100356868   0
89   100358568   0
88   100360268   0
88   100361968   0
89   100363668   0
88   100365368   0
89   100367068   0
88   100368768   0
88   100370468   0
88   100372168   0
88   100373868   0
88   100375568   0
88   100377268   0
88   100378968   0
88   100380668   0
88   100382368   0
88   100384068   0
88   100385768   0
88   100387468   0
87   100389168   0
87   100390868   0
88   100392568   0
87   100394268   0
88   100395968   0
87   100397668   0
88   100399368   0
88   100401068   0
88   100402768   0
88   100404468   0
88   100406168   0
88   100407868   0
88   100409568   0
88   100411268   0
88   100412968   0
88   100414668   0
88   100416368   0
88   100418068   0
88   100419768   0
88   100421468   0
88   100423168   0
88   100424868   0
88   100426568   0
88   100428268   0
88   100429968   0
89   100431668   0
88   100433368   0
88   100435068   0
89   100436768   0
88   100438468   0
88   100440168   0
89   100441868   0
89   100443568   0
89   100445268   0
88   100446968   0
88   100448668   0
89   100450368   0
89   100452068   0
89   100453768   0
89   100455468   0
89   100457168   0
90   100458868   0
89   100460568   0
90   100462268   0
91   100463968   0
91   100465676   0
91   100467368   0
91   100469068   0
91   100470768   0
92   100472468   0
92   100474168   0
92   100475868   0
92   100477568   0
93   100479268   0
92   100480968   0
94   100482668   0
94   100484368   0
94   100486068   0
95   100487768   0
95   100489468   0
95   100491168   0
95   100492868   0
95   100494568   0
95   100496268   0
96   100497968   0
96   100499668   0
97   100501368   0
97   100503068   0
97   100504768   0
97   100506468   0
97   100508168   0
98   100509868   0
97   100511568   0
97   100513268   0
97   100514968   0
99   100516668   0
99   100518368   0
99   100520068   0
99   100521768   0
99   100523468   0
98   100525168   0
98   100526868   0
99   100528568   0
99   100530268   0
99   100531968   0
99   100533668   0
99   100535368   0
99   100537068   0
99   100538768   0
99   100540468   0
99   100542168   0
98   100543868   0
98   100545568   0
97   100547268   0
98   100548968   0
98   100550672   0
98   100552368   0
97   100554068   0
97   100555768   0
97   100557468   0
97   100559168   0
96   100560868   0
97   100562568   0
96   100564268   0
96   100565968   0
96   100567668   0
96   100569368   0
96   100571068   0
96   100572768   0
96   100574468   0
96   100576168   0
95   100577868   0
96   100579568   0
95   100581268   0
96   100582968   0
95   100584668   0
95   100586368   0
95   100588068   0
95   100589768   0
95   100591468   0
95   100593168   0
95   100594868   0
95   100596568   0
95   100598268   0
94   100599968   0
94   100601668   0
94   100603368   0
94   100605068   0
95   100606768   0
94   100608468   0
94   100610168   0
94   100611868   0
94   100613568   0
94   100615268   0
93   100616968   0
93   100618668   0
93   100620368   0
94   100622068   0
92   100623768   0
93   100625468   0
93   100627168   0
93   100628868   0
93   100630568   0
93   100632268   0
92   100633968   0
92   100635668   0
92   100637368   0
92   100639068   0
92   100640776   0
92   100642468   0
92   100644168   0
92   100645868   0
91   100647568   0
91   100649268   0
91   100650968   0
92   100652668   0
92   100654368   0
91   100656068   0
92   100657768   0
91   100659468   0
92   100661168   0
91   100662868   0
91   100664568   0
91   100666268   0
92   100667968   0
91   100669668   0
92   100671368   0
92   100673068   0
92   100674768   0
92   100676468   0
91   100678168   0
92   100679868   0
92   100681568   0
92   100683268   0
91   100684968   0
92   100686668   0
92   100688368   0
92   100690068   0
92   100691768   0
91   100693468   0
91   100695168   0
92   100696868   0
92   100698568   0
92   100700268   0
92   100701968   0
92   100703668   0
92   100705368   0
92   100707068   0
92   100708768   0
92   100710468   0
92   100712168   0
91   100713868   0
92   100715568   0
92   100717268   0
92   100718968   0
92   100720668   0
92   100722368   0
92   100724068   0
92   100725776   0
92   100727468   0
92   100729168   0
93   100730868   0
93   100732568   0
93   100734268   0
93   100735968   0
93   100737668   0
94   100739368   0
93   100741068   0
94   100742768   0
94   100744468   0
95   100746168   0
94   100747868   0
95   100749568   0
95   100751268   0
95   100752968   0
96   100754668   0
96   100756368   0
96   100758068   0
96   100759768   0
96   100761468   0
96   100763168   0
97   100764868   0
96   100766568   0
97   100768268   0
97   100769968   0
97   100771668   0
97   100773368   0
97   100775068   0
97   100776768   0
97   100778468   0
97   100780168   0
97   100781868   0
98   100783568   0
97   100785268   0
98   100786968   0
98   100788668   0
97   100790368   0
97   100792068   0
97   100793768   0
97   100795468   0
96   100797168   0
97   100798868   0
97   100800568   0
97   100802268   0
97   100803968   0
96   100805668   0
96   100807368   0
97   100809068   0
96   100810768   0
96   100812468   0
96   100814168   0
97   100815868   0
96   100817568   0
96   100819268   0
96   100820968   0
96   100822668   0
95   100824368   0
95   100826068   0
95   100827768   0
94   100829468   0
95   100831168   0
95   100832868   0
94   100834568   0
94   100836268   0
94   100837968   0
94   100839668   0
94   100841368   0
93   100843068   0
93   100844768   0
93   100846468   0
93   100848168   0
92   100849868   0
92   100851568   0
91   100853268   0
91   100854968   0
92   100856668   0
92   100858368   0
91   100860068   0
91   100861768   0
91   100863468   0
90   100865168   0
91   100866868   0
91   100868568   0
89   100870268   0
90   100871968   0
89   100873668   0
89   100875368   0
89   100877068   0
88   100878768   0
88   100880468   0
88   100882168   0
88   100883868   0
88   100885568   0
88   100887268   0
88   100888968   0
88   100890668   0
88   100892368   0
88   100894068   0
88   100895768   0
88   100897468   0
88   100899168   0
88   100900876   0
88   100902568   0
88   100904268   0
88   100905968   0
88   100907668   0
88   100909368   0
88   100911068   0
88   100912768   0
88   100914468   0
88   100916168   0
88   100917868   0
88   100919568   0
88   100921268   0
88   100922968   0
88   100924668   0
89   100926368   0
88   100928068   0
88   100929768   0
88   100931468   0
88   100933168   0
89   100934868   0
88   100936568   0
88   100938268   0
88   100939968   0
88   100941668   0
88   100943368   0
88   100945068   0
88   100946768   0
88   100948468   0
89   100950168   0
89   100951868   0
88   100953568   0
89   100955268   0
88   100956968   0
88   100958668   0
88   100960368   0
88   100962068   0
88   100963768   0
88   100965468   0
88   100967168   0
88   100968868   0
89   100970568   0
88   100972268   0
88   100973968   0
89   100975668   0
89   100977368   0
89   100979068   0
88   100980768   0
89   100982468   0
90   100984168   0
89   100985872   0
90   100987568   0
89   100989268   0
90   100990968   0
90   100992668   0
91   100994368   0
91   100996068   0
91   100997768   0
92   100999468   0
92   101001168   0
92   101002868   0
92   101004568   0
92   101006268   0
93   101007968   0
93   101009668   0
92   101011368   0
92   101013068   0
94   101014768   0
94   101016468   0
94   101018168   0
95   101019868   0
95   101021568   0
95   101023268   0
95   101024968   0
95   101026668   0
95   101028368   0
94   101030068   0
96   101031768   0
95   101033468   0
96   101035168   0
96   101036868   0
96   101038568   0
96   101040268   0
96   101041968   0
96   101043668   0
96   101045368   0
96   101047068   0
96   101048768   0
96   101050468   0
96   101052168   0
96   101053868   0
96   101055568   0
95   101057268   0
95   101058968   0
95   101060668   0
94   101062368   0
95   101064068   0
95   101065768   0
95   101067468   0
95   101069168   0
94   101070868   0
94   101072568   0
94   101074268   0
94   101075976   0
93   101077668   0
94   101079368   0
92   101081068   0
92   101082768   0
93   101084468   0
93   101086168   0
92   101087868   0
92   101089568   0
91   101091268   0
92   101092968   0
91   101094668   0
91   101096368   0
91   101098068   0
91   101099768   0
91   101101468   0
89   101103168   0
90   101104868   0
89   101106568   0
88   101108268   0
88   101109968   0
88   101111668   0
88   101113368   0
88   101115068   0
88   101116768   0
88   101118468   0
88   101120168   0
88   101121868   0
87   101123568   0
87   101125268   0
88   101126968   0
88   101128668   0
88   101130368   0
87   101132068   0
88   101133768   0
87   101135468   0
87   101137168   0
87   101138868   0
86   101140568   0
87   101142268   0
87   101143968   0
87   101145668   0
87   101147368   0
88   101149068   0
88   101150768   0
88   101152468   0
88   101154168   0
88   101155868   0
87   101157568   0
88   101159268   0
88   101160976   0
88   101162668   0
88   101164368   0
88   101166068   0
88   101167768   0
88   101169468   0
88   101171168   0
88   101172868   0
88   101174568   0
87   101176268   0
87   101177968   0
88   101179668   0
87   101181368   0
88   101183068   0
87   101184768   0
87   101186468   0
87   101188168   0
87   101189868   0
87   101191568   0
87   101193268   0
86   101194968   0
86   101196668   0
86   101198368   0
86   101200068   0
85   101201768   0
85   101203468   0
86   101205168   0
85   101206868   0
84   101208568   0
85   101210268   0
84   101211968   0
83   101213668   0
83   101215368   0
83   101217068   0
83   101218768   0
82   101220468   0
82   101222168   0
83   101223868   0
81   101225568   0
81   101227268   0
81   101228968   0
81   101230668   0
80   101232368   0
80   101234068   0
80   101235768   0
80   101237468   0
79   101239168   0
79   101240868   0
79   101242568   0
79   101244268   0
78   101245968   0
78   101247668   0
78   101249368   0
78   101251068   0
77   101252768   0
78   101254468   0
78   101256168   0
77   101257868   0
78   101259568   0
77   101261268   0
77   101262968   0
76   101264668   0
77   101266368   0
76   101268068   0
77   101269768   0
76   101271468   0
76   101273168   0
76   101274868   0
76   101276568   0
76   101278268   0
76   101279968   0
76   101281668   0
76   101283368   0
76   101285068   0
76   101286768   0
76   101288468   0
76   101290168   0
76   101291868   0
77   101293568   0
77   101295268   0
77   101296968   0
76   101298668   0
78   101300368   0
78   101302068   0
79   101303768   0
78   101305468   0
79   101307168   0
79   101308868   0
79   101310568   0
80   101312268   0
80   101313968   0
81   101315668   0
82   101317368   0
83   101319068   0
83   101320768   0
83   101322468   0
84   101324168   0
84   101325868   0
85   101327568   0
86   101329268   0
87   101330968   0
87   101332668   0
88   101334368   0
88   101336076   0
88   101337768   0
88   101339468   0
88   101341168   0
89   101342868   0
89   101344568   0
89   101346268   0
90   101347968   0
91   101349668   0
92   101351368   0
92   101353068   0
92   101354768   0
92   101356468   0
92   101358168   0
93   101359868   0
93   101361568   0
94   101363268   0
94   101364968   0
95   101366668   0
95   101368368   0
95   101370068   0
96   101371768   0
96   101373468   0
97   101375168   0
97   101376868   0
97   101378568   0
98   101380268   0
99   101381968   0
99   101383668   0
99   101385368   0
100   101387156   0
100   101388940   0
100   101390724   0
102   101392508   0
103   101394296   0
103   101396080   0
103   101397864   0
103   101399648   0
103   101401436   0
103   101403220   0
103   101405004   0
103   101406788   0
105   101408576   0
105   101410360   0
105   101412144   0
106   101413928   0
107   101415716   0
106   101417500   0
106   101419284   0
107   101421072   0
105   101422856   0
105   101424640   0
107   101426424   0
107   101428208   0
106   101429996   0
107   101431780   0
108   101433564   0
108   101435348   0
108   101437136   0
108   101438920   0
108   101440704   0
108   101442488   0
108   101444276   0
108   101446060   0
108   101447844   0
108   101449628   0
108   101451416   0
108   101453200   0
109   101454984   0
109   101456768   0
108   101458556   0
108   101460340   0
108   101462124   0
108   101463908   0
109   101465696   0
109   101467480   0
108   101469264   0
109   101471048   0
108   101472836   0
108   101474620   0
109   101476404   0
109   101478188   0
108   101479976   0
109   101481760   0
109   101483544   0
110   101485328   0
110   101487116   0
110   101488900   0
109   101490684   0
109   101492468   0
109   101494256   0
110   101496040   0
111   101497824   0
111   101499608   0
110   101501396   0
111   101503180   0
111   101504964   0
112   101506748   0
110   101508536   0
110   101510320   0
111   101512104   0
112   101513888   0
112   101515676   0
112   101517460   0
112   101519244   0
112   101521028   0
112   101522816   0
112   101524600   0
112   101526384   0
112   101528168   0
113   101529956   0
113   101531740   0
113   101533524   0
113   101535308   0
112   101537096   0
113   101538880   0
112   101540664   0
112   101542448   0
113   101544236   0
113   101546020   0
113   101547804   0
113   101549588   0
113   101551376   0
112   101553164   0
112   101554944   0
113   101556728   0
113   101558516   0
112   101560300   0
112   101562084   0
112   101563868   0
113   101565656   0
113   101567440   0
113   101569224   0
113   101571008   0
113   101572796   0
113   101574580   0
113   101576364   0
112   101578148   0
113   101579936   0
112   101581720   0
112   101583504   0
113   101585288   0
112   101587076   0
112   101588860   0
112   101590644   0
112   101592428   0
111   101594216   0
112   101596000   0
110   101597784   0
111   101599568   0
111   101601356   0
112   101603140   0
111   101604924   0
111   101606708   0
110   101608496   0
111   101610280   0
110   101612064   0
110   101613848   0
111   101615636   0
109   101617420   0
110   101619204   0
110   101620988   0
109   101622776   0
109   101624560   0
108   101626344   0
108   101628128   0
108   101629916   0
108   101631700   0
108   101633484   0
108   101635268   0
108   101637056   0
107   101638840   0
107   101640624   0
107   101642408   0
106   101644196   0
107   101645980   0
106   101647764   0
106   101649548   0
105   101651336   0
104   101653120   0
104   101654904   0
103   101656688   0
103   101658476   0
103   101660260   0
103   101662044   0
103   101663828   0
103   101665616   0
102   101667400   0
103   101669184   0
102   101670968   0
101   101672756   0
101   101674540   0
100   101676324   0
100   101678108   0
100   101679896   0
99   101681596   0
99   101683296   0
99   101684996   0
99   101686696   0
97   101688396   0
97   101690096   0
97   101691796   0
96   101693496   0
96   101695196   0
96   101696896   0
95   101698596   0
95   101700296   0
95   101701996   0
95   101703696   0
93   101705396   0
94   101707096   0
92   101708796   0
93   101710496   0
92   101712196   0
91   101713896   0
92   101715596   0
91   101717296   0
91   101718996   0
89   101720696   0
89   101722396   0
89   101724096   0
88   101725796   0
88   101727496   0
86   101729196   0
86   101730896   0
86   101732596   0
86   101734296   0
86   101735996   0
84   101737696   0
84   101739396   0
82   101741096   0
82   101742796   0
81   101744496   0
81   101746196   0
80   101747896   0
79   101749596   0
79   101751296   0
78   101752996   0
78   101754696   0
76   101756396   0
76   101758096   0
75   101759796   0
75   101761496   0
75   101763196   0
73   101764896   0
72   101766596   0
71   101768296   0
71   101769996   0
71   101771696   0
70   101773396   0
70   101775096   0
69   101776796   0
68   101778496   0
68   101780196   0
67   101781896   0
66   101783596   0
66   101785296   0
66   101786996   0
65   101788696   0
63   101790396   0
63   101792096   0
63   101793800   0
62   101795496   0
62   101797196   0
62   101798896   0
61   101800596   0
61   101802296   0
60   101803996   0
59   101805696   0
60   101807396   0
59   101809096   0
58   101810796   0
57   101812496   0
58   101814196   0
57   101815896   0
57   101817596   0
57   101819296   0
56   101820996   0
57   101822696   0
57   101824396   0
56   101826096   0
56   101827796   0
56   101829496   0
55   101831196   0
55   101832896   0
56   101834596   0
55   101836296   0
56   101837996   0
54   101839696   0
55   101841396   0
55   101843096   0
55   101844796   0
55   101846496   0
55   101848196   0
55   101849896   0
56   101851596   0
55   101853296   0
55   101854996   0
55   101856696   0
55   101858396   0
55   101860096   0
54   101861796   0
54   101863496   0
55   101865196   0
55   101866896   0
55   101868596   0
55   101870296   0
54   101871996   0
54   101873696   0
55   101875396   0
55   101877096   0
54   101878800   0
55   101880496   0
54   101882196   0
55   101883896   0
54   101885596   0
55   101887296   0
54   101888996   0
54   101890696   0
54   101892396   0
54   101894096   0
54   101895796   0
54   101897496   0
54   101899196   0
54   101900896   0
54   101902596   0
54   101904296   0
55   101905996   0
54   101907696   0
54   101909396   0
54   101911096   0
55   101912796   0
54   101914496   0
56   101916196   0
56   101917896   0
56   101919596   0
55   101921296   0
56   101922996   0
56   101924696   0
56   101926396   0
56   101928096   0
56   101929796   0
57   101931496   0
57   101933196   0
56   101934896   0
57   101936596   0
56   101938296   0
56   101939996   0
56   101941696   0
56   101943396   0
57   101945096   0
57   101946796   0
57   101948496   0
57   101950196   0
59   101951896   0
59   101953596   0
58   101955296   0
59   101956996   0
59   101958696   0
59   101960396   0
60   101962096   0
60   101963796   0
60   101965496   0
61   101967196   0
61   101968896   0
62   101970596   0
62   101972296   0
62   101973996   0
63   101975696   0
63   101977396   0
64   101979096   0
64   101980796   0
65   101982496   0
66   101984196   0
67   101985896   0
67   101987596   0
67   101989296   0
67   101990996   0
69   101992696   0
68   101994396   0
70   101996096   0
71   101997796   0
71   101999496   0
73   102001196   0
73   102002896   0
75   102004596   0
75   102006296   0
76   102007996   0
78   102009696   0
79   102011396   0
79   102013096   0
81   102014796   0
82   102016496   0
83   102018196   0
83   102019896   0
84   102021596   0
86   102023296   0
85   102024996   0
86   102026696   0
86   102028396   0
86   102030096   0
87   102031796   0
87   102033496   0
88   102035196   0
88   102036896   0
88   102038596   0
88   102040296   0
89   102041996   0
89   102043696   0
89   102045396   0
89   102047096   0
89   102048796   0
90   102050496   0
91   102052196   0
91   102053900   0
92   102055596   0
91   102057296   0
92   102058996   0
92   102060696   0
93   102062396   0
93   102064096   0
94   102065796   0
94   102067496   0
94   102069196   0
94   102070896   0
94   102072596   0
95   102074296   0
95   102075996   0
95   102077696   0
96   102079396   0
96   102081096   0
96   102082796   0
97   102084496   0
96   102086196   0
97   102087896   0
97   102089596   0
98   102091296   0
97   102092996   0
97   102094696   0
97   102096396   0
98   102098096   0
98   102099796   0
99   102101496   0
99   102103196   0
99   102104896   0
99   102106596   0
99   102108296   0
100   102110080   0
99   102111780   0
100   102113564   0
100   102115348   0
101   102117136   0
102   102118920   0
102   102120704   0
102   102122488   0
103   102124276   0
103   102126060   0
103   102127844   0
103   102129628   0
103   102131416   0
103   102133200   0
103   102134984   0
103   102136768   0
104   102138556   0
103   102140340   0
103   102142124   0
103   102143908   0
103   102145696   0
105   102147480   0
105   102149264   0
105   102151048   0
105   102152836   0
106   102154620   0
106   102156404   0
105   102158188   0
106   102159976   0
105   102161760   0
107   102163544   0
106   102165328   0
107   102167116   0
107   102168900   0
107   102170684   0
108   102172468   0
108   102174256   0
108   102176040   0
108   102177824   0
109   102179608   0
108   102181396   0
109   102183180   0
108   102184972   0
110   102186748   0
109   102188536   0
110   102190320   0
110   102192104   0
110   102193888   0
110   102195676   0
111   102197460   0
111   102199244   0
111   102201028   0
111   102202816   0
111   102204600   0
111   102206384   0
112   102208168   0
112   102209956   0
112   102211740   0
112   102213524   0
113   102215308   0
113   102217096   0
113   102218880   0
113   102220664   0
113   102222448   0
113   102224236   0
113   102226020   0
113   102227804   0
113   102229588   0
113   102231376   0
113   102233160   0
114   102234944   0
115   102236728   0
114   102238516   0
113   102240300   0
113   102242084   0
114   102243868   0
115   102245656   0
114   102247440   0
115   102249224   0
115   102251008   0
115   102252796   0
115   102254580   0
115   102256364   0
116   102258148   0
116   102259936   0
115   102261720   0
115   102263504   0
116   102265288   0
116   102267076   0
116   102268860   0
117   102270644   0
117   102272428   0
117   102274216   0
117   102276000   0
116   102277784   0
116   102279568   0
116   102281356   0
117   102283140   0
118   102284924   0
117   102286708   0
118   102288496   0
118   102290280   0
118   102292064   0
118   102293848   0
117   102295636   0
118   102297420   0
117   102299204   0
118   102300988   0
119   102302776   0
118   102304560   0
118   102306344   0
118   102308128   0
118   102309916   0
118   102311700   0
117   102313484   0
118   102315268   0
119   102317056   0
118   102318840   0
119   102320624   0
118   102322408   0
118   102324196   0
118   102325980   0
117   102327764   0
118   102329548   0
118   102331336   0
118   102333120   0
119   102334904   0
118   102336688   0
118   102338476   0
118   102340260   0
119   102342044   0
118   102343828   0
118   102345616   0
118   102347400   0
118   102349184   0
120   102350968   0
120   102352756   0
119   102354540   0
119   102356324   0
119   102358108   0
118   102359896   0
119   102361680   0
119   102363464   0
119   102365248   0
119   102367036   0
120   102368820   0
120   102370604   0
119   102372388   0
119   102374176   0
119   102375960   0
118   102377744   0
118   102379536   0
118   102381316   0
117   102383100   0
118   102384884   0
118   102386668   0
118   102388456   0
118   102390240   0
118   102392024   0
118   102393808   0
117   102395596   0
116   102397380   0
116   102399164   0
117   102400948   0
116   102402736   0
115   102404520   0
115   102406304   0
114   102408088   0
115   102409876   0
115   102411660   0
115   102413444   0
113   102415228   0
114   102417016   0
113   102418800   0
113   102420584   0
113   102422368   0
113   102424156   0
111   102425940   0
111   102427724   0
111   102429508   0
111   102431296   0
111   102433080   0
111   102434864   0
110   102436648   0
110   102438436   0
109   102440220   0
110   102442004   0
109   102443788   0
108   102445576   0
108   102447360   0
107   102449144   0
108   102450928   0
107   102452716   0
107   102454500   0
107   102456284   0
105   102458068   0
105   102459856   0
105   102461640   0
104   102463424   0
103   102465208   0
104   102466996   0
103   102468780   0
103   102470564   0
103   102472348   0
102   102474136   0
103   102475920   0
102   102477704   0
102   102479488   0
101   102481276   0
101   102483060   0
101   102484844   0
100   102486628   0
99   102488328   0
99   102490028   0
99   102491728   0
98   102493428   0
98   102495128   0
97   102496828   0
96   102498528   0
96   102500228   0
96   102501928   0
96   102503628   0
95   102505328   0
95   102507028   0
94   102508728   0
93   102510428   0
93   102512128   0
92   102513828   0
92   102515528   0
92   102517228   0
91   102518928   0
89   102520628   0
89   102522328   0
89   102524028   0
88   102525728   0
87   102527428   0
87   102529128   0
86   102530828   0
85   102532528   0
84   102534228   0
84   102535928   0
83   102537628   0
82   102539328   0
81   102541028   0
81   102542728   0
79   102544428   0
79   102546128   0
77   102547828   0
77   102549528   0
76   102551228   0
75   102552928   0
73   102554636   0
73   102556328   0
72   102558028   0
71   102559728   0
71   102561428   0
70   102563128   0
68   102564828   0
68   102566528   0
67   102568228   0
65   102569928   0
65   102571628   0
63   102573328   0
63   102575028   0
62   102576728   0
61   102578428   0
60   102580128   0
59   102581828   0
59   102583528   0
57   102585228   0
56   102586928   0
56   102588628   0
56   102590328   0
56   102592028   0
56   102593728   0
55   102595428   0
55   102597128   0
54   102598828   0
54   102600528   0
54   102602228   0
53   102603928   0
54   102605628   0
54   102607328   0
54   102609028   0
54   102610728   0
52   102612428   0
54   102614128   0
53   102615828   0
54   102617528   0
54   102619228   0
53   102620928   0
54   102622628   0
54   102624328   0
54   102626028   0
54   102627728   0
55   102629428   0
55   102631128   0
54   102632828   0
55   102634528   0
55   102636228   0
56   102637928   0
56   102639636   0
56   102641328   0
57   102643028   0
57   102644728   0
57   102646428   0
57   102648128   0
57   102649828   0
59   102651528   0
57   102653228   0
59   102654928   0
58   102656628   0
59   102658328   0
60   102660028   0
60   102661728   0
60   102663428   0
60   102665128   0
61   102666828   0
63   102668528   0
62   102670228   0
63   102671928   0
63   102673628   0
64   102675328   0
64   102677028   0
65   102678728   0
66   102680428   0
67   102682128   0
67   102683828   0
68   102685528   0
71   102687228   0
71   102688928   0
71   102690628   0
72   102692328   0
73   102694028   0
75   102695728   0
76   102697428   0
76   102699128   0
77   102700828   0
78   102702528   0
79   102704228   0
80   102705928   0
81   102707628   0
83   102709328   0
84   102711028   0
85   102712728   0
88   102714428   0
89   102716128   0
92   102717828   0
95   102719528   0
97   102721228   0
99   102722928   0
102   102724716   0
103   102726500   0
104   102728284   0
105   102730068   0
108   102731856   0
108   102733640   0
108   102735424   0
108   102737208   0
107   102738996   0
107   102740780   0
105   102742564   0
105   102744348   0
105   102746136   0
104   102747920   0
105   102749704   0
104   102751488   0
103   102753276   0
103   102755060   0
103   102756844   0
103   102758628   0
103   102760416   0
103   102762200   0
103   102763984   0
103   102765768   0
103   102767556   0
103   102769340   0
103   102771124   0
103   102772908   0
103   102774696   0
103   102776480   0
103   102778264   0
103   102780048   0
103   102781836   0
103   102783620   0
103   102785404   0
103   102787188   0
103   102788976   0
102   102790760   0
102   102792544   0
102   102794328   0
101   102796116   0
101   102797900   0
101   102799684   0
102   102801468   0
100   102803256   0
101   102805040   0
99   102806740   0
99   102808440   0
99   102810140   0
97   102811840   0
97   102813540   0
97   102815240   0
97   102816940   0
96   102818640   0
95   102820340   0
95   102822040   0
95   102823740   0
94   102825440   0
94   102827140   0
93   102828840   0
93   102830540   0
92   102832240   0
92   102833940   0
91   102835640   0
91   102837340   0
92   102839040   0
91   102840740   0
92   102842440   0
91   102844140   0
92   102845840   0
92   102847540   0
92   102849240   0
93   102850940   0
92   102852640   0
93   102854340   0
93   102856040   0
94   102857744   0
93   102859440   0
93   102861140   0
94   102862840   0
94   102864540   0
96   102866240   0
96   102867940   0
95   102869640   0
96   102871340   0
96   102873040   0
96   102874740   0
96   102876440   0
97   102878140   0
97   102879840   0
96   102881540   0
96   102883240   0
96   102884940   0
97   102886640   0
97   102888340   0
96   102890040   0
96   102891740   0
96   102893440   0
96   102895140   0
96   102896840   0
96   102898540   0
97   102900240   0
97   102901940   0
97   102903640   0
97   102905340   0
97   102907040   0
97   102908740   0
97   102910440   0
97   102912140   0
97   102913840   0
97   102915540   0
97   102917240   0
98   102918940   0
98   102920640   0
98   102922340   0
98   102924040   0
98   102925740   0
98   102927440   0
98   102929140   0
98   102930840   0
97   102932540   0
99   102934240   0
99   102935940   0
98   102937640   0
99   102939340   0
99   102941040   0
99   102942740   0
99   102944440   0
99   102946140   0
99   102947844   0
99   102949540   0
99   102951240   0
99   102952940   0
99   102954640   0
99   102956340   0
99   102958040   0
99   102959740   0
99   102961440   0
99   102963140   0
99   102964840   0
99   102966540   0
99   102968240   0
99   102969940   0
99   102971640   0
99   102973340   0
99   102975040   0
99   102976740   0
99   102978440   0
99   102980140   0
100   102981924   0
99   102983624   0
100   102985408   0
100   102987196   0
100   102988980   0
100   102990764   0
101   102992548   0
100   102994336   0
101   102996120   0
101   102997904   0
100   102999688   0
100   103001476   0
101   103003260   0
101   103005044   0
100   103006828   0
100   103008616   0
100   103010400   0
101   103012184   0
100   103013968   0
100   103015756   0
101   103017540   0
100   103019324   0
100   103021108   0
100   103022896   0
100   103024680   0
101   103026464   0
100   103028248   0
101   103030036   0
100   103031828   0
100   103033604   0
101   103035388   0
101   103037176   0
100   103038960   0
99   103040660   0
99   103042360   0
100   103044144   0
100   103045928   0
100   103047716   0
101   103049500   0
100   103051284   0
101   103053068   0
100   103054856   0
100   103056640   0
100   103058424   0
100   103060208   0
99   103061908   0
99   103063608   0
99   103065308   0
99   103067008   0
99   103068708   0
100   103070496   0
99   103072196   0
99   103073896   0
99   103075596   0
99   103077296   0
99   103078996   0
99   103080696   0
99   103082396   0
99   103084096   0
99   103085796   0
99   103087496   0
99   103089196   0
99   103090896   0
99   103092596   0
99   103094296   0
99   103095996   0
98   103097696   0
99   103099400   0
99   103101096   0
98   103102796   0
98   103104496   0
99   103106196   0
98   103107896   0
97   103109596   0
98   103111296   0
97   103112996   0
97   103114696   0
98   103116396   0
98   103118096   0
97   103119796   0
96   103121496   0
98   103123196   0
97   103124896   0
96   103126596   0
96   103128296   0
96   103129996   0
97   103131696   0
96   103133396   0
96   103135096   0
97   103136796   0
96   103138496   0
96   103140196   0
96   103141896   0
96   103143596   0
96   103145296   0
96   103146996   0
96   103148696   0
96   103150396   0
96   103152096   0
96   103153796   0
96   103155496   0
96   103157196   0
96   103158896   0
96   103160596   0
96   103162296   0
96   103163996   0
96   103165696   0
96   103167396   0
96   103169096   0
97   103170796   0
96   103172496   0
96   103174196   0
96   103175896   0
96   103177596   0
95   103179296   0
95   103180996   0
96   103182696   0
96   103184400   0
96   103186096   0
96   103187796   0
96   103189496   0
96   103191196   0
96   103192896   0
96   103194596   0
97   103196296   0
96   103197996   0
96   103199696   0
96   103201396   0
96   103203096   0
97   103204796   0
95   103206496   0
96   103208196   0
96   103209896   0
96   103211596   0
96   103213296   0
96   103214996   0
96   103216696   0
97   103218396   0
96   103220096   0
96   103221796   0
96   103223496   0
95   103225196   0
96   103226896   0
96   103228596   0
95   103230296   0
96   103231996   0
96   103233696   0
96   103235396   0
96   103237096   0
96   103238796   0
96   103240496   0
96   103242196   0
96   103243896   0
96   103245596   0
96   103247296   0
96   103248996   0
97   103250696   0
96   103252396   0
96   103254096   0
97   103255796   0
96   103257496   0
96   103259196   0
96   103260896   0
96   103262596   0
96   103264296   0
97   103265996   0
97   103267696   0
96   103269396   0
97   103271096   0
97   103272796   0
96   103274496   0
96   103276196   0
97   103277896   0
97   103279596   0
96   103281296   0
97   103282996   0
97   103284696   0
96   103286396   0
96   103288096   0
96   103289796   0
96   103291496   0
96   103293196   0
96   103294896   0
96   103296596   0
96   103298296   0
96   103299996   0
95   103301696   0
96   103303396   0
96   103305096   0
96   103306796   0
96   103308496   0
96   103310196   0
96   103311896   0
96   103313596   0
96   103315296   0
96   103316996   0
96   103318696   0
96   103320396   0
96   103322096   0
96   103323796   0
96   103325496   0
96   103327196   0
96   103328896   0
96   103330596   0
95   103332296   0
96   103333996   0
96   103335696   0
96   103337396   0
95   103339096   0
96   103340796   0
96   103342496   0
96   103344196   0
95   103345896   0
96   103347596   0
96   103349296   0
96   103350996   0
96   103352696   0
96   103354396   0
96   103356096   0
96   103357796   0
96   103359500   0
96   103361196   0
96   103362896   0
96   103364596   0
96   103366296   0
96   103367996   0
97   103369696   0
96   103371396   0
96   103373096   0
96   103374796   0
96   103376496   0
96   103378196   0
96   103379896   0
96   103381596   0
96   103383296   0
96   103384996   0
96   103386696   0
96   103388396   0
96   103390096   0
96   103391796   0
96   103393496   0
96   103395196   0
96   103396896   0
96   103398596   0
96   103400296   0
96   103401996   0
96   103403696   0
96   103405396   0
96   103407096   0
96   103408796   0
96   103410496   0
96   103412196   0
95   103413896   0
96   103415596   0
95   103417296   0
96   103418996   0
95   103420696   0
95   103422396   0
95   103424096   0
94   103425796   0
96   103427496   0
96   103429196   0
95   103430896   0
95   103432596   0
96   103434296   0
94   103435996   0
95   103437696   0
95   103439396   0
95   103441096   0
94   103442796   0
94   103444496   0
94   103446196   0
93   103447896   0
93   103449596   0
94   103451296   0
92   103452996   0
92   103454696   0
92   103456396   0
92   103458096   0
92   103459796   0
92   103461496   0
92   103463196   0
91   103464896   0
92   103466596   0
92   103468296   0
91   103469996   0
91   103471696   0
91   103473396   0
92   103475096   0
92   103476796   0
92   103478496   0
91   103480196   0
91   103481896   0
91   103483596   0
91   103485296   0
92   103486996   0
92   103488696   0
92   103490396   0
91   103492096   0
91   103493796   0
92   103495496   0
92   103497196   0
92   103498896   0
92   103500596   0
92   103502296   0
92   103503996   0
92   103505696   0
92   103507396   0
92   103509096   0
92   103510796   0
92   103512496   0
92   103514196   0
92   103515896   0
91   103517596   0
92   103519296   0
92   103520996   0
91   103522696   0
92   103524396   0
92   103526096   0
92   103527796   0
92   103529496   0
92   103531196   0
92   103532896   0
92   103534600   0
92   103536296   0
92   103537996   0
92   103539696   0
92   103541396   0
92   103543096   0
91   103544796   0
92   103546496   0
92   103548196   0
93   103549896   0
92   103551596   0
92   103553296   0
92   103554996   0
93   103556696   0
92   103558396   0
93   103560096   0
93   103561796   0
92   103563496   0
93   103565196   0
93   103566896   0
94   103568596   0
93   103570296   0
94   103571996   0
94   103573696   0
94   103575396   0
93   103577096   0
93   103578796   0
94   103580496   0
94   103582196   0
94   103583896   0
94   103585596   0
94   103587296   0
94   103588996   0
94   103590696   0
94   103592396   0
93   103594096   0
94   103595796   0
94   103597496   0
93   103599196   0
93   103600896   0
94   103602596   0
94   103604296   0
94   103605996   0
94   103607696   0
94   103609396   0
94   103611096   0
94   103612796   0
94   103614496   0
94   103616196   0
94   103617896   0
94   103619600   0
94   103621296   0
94   103622996   0
94   103624696   0
93   103626396   0
93   103628096   0
93   103629796   0
94   103631496   0
93   103633196   0
94   103634896   0
94   103636596   0
93   103638296   0
93   103639996   0
92   103641696   0
93   103643396   0
92   103645096   0
92   103646796   0
93   103648496   0
93   103650196   0
93   103651896   0
93   103653596   0
93   103655296   0
93   103656996   0
92   103658696   0
92   103660396   0
93   103662096   0
92   103663796   0
92   103665496   0
92   103667196   0
93   103668896   0
92   103670596   0
92   103672296   0
93   103673996   0
93   103675696   0
92   103677396   0
92   103679096   0
92   103680796   0
92   103682496   0
92   103684196   0
92   103685896   0
92   103687596   0
92   103689296   0
92   103690996   0
92   103692696   0
91   103694396   0
92   103696096   0
92   103697796   0
92   103699496   0
92   103701196   0
92   103702896   0
92   103704596   0
92   103706296   0
92   103707996   0
92   103709696   0
92   103711396   0
92   103713096   0
92   103714796   0
92   103716496   0
92   103718196   0
92   103719896   0
92   103721596   0
92   103723296   0
92   103724996   0
92   103726696   0
92   103728396   0
92   103730096   0
92   103731796   0
92   103733496   0
92   103735196   0
92   103736896   0
92   103738596   0
92   103740296   0
92   103741996   0
92   103743696   0
92   103745396   0
92   103747096   0
91   103748796   0
91   103750496   0
92   103752196   0
92   103753896   0
92   103755596   0
92   103757296   0
92   103758996   0
92   103760696   0
92   103762396   0
92   103764096   0
92   103765796   0
92   103767496   0
92   103769196   0
92   103770896   0
92   103772596   0
92   103774296   0
92   103775996   0
92   103777696   0
92   103779396   0
93   103781096   0
93   103782796   0
93   103784496   0
93   103786196   0
93   103787896   0
92   103789596   0
92   103791296   0
92   103792996   0
93   103794700   0
92   103796396   0
93   103798096   0
93   103799796   0
94   103801496   0
94   103803196   0
94   103804896   0
95   103806596   0
95   103808296   0
95   103809996   0
96   103811696   0
95   103813396   0
96   103815096   0
96   103816796   0
96   103818496   0
96   103820196   0
97   103821896   0
97   103823596   0
97   103825296   0
97   103826996   0
97   103828696   0
97   103830396   0
97   103832096   0
97   103833796   0
98   103835496   0
98   103837196   0
97   103838896   0
98   103840596   0
97   103842296   0
97   103843996   0
97   103845696   0
97   103847396   0
98   103849096   0
98   103850796   0
97   103852496   0
98   103854196   0
98   103855896   0
98   103857596   0
99   103859296   0
98   103860996   0
99   103862696   0
99   103864396   0
99   103866096   0
99   103867796   0
99   103869496   0
99   103871196   0
100   103872980   0
99   103874680   0
100   103876464   0
99   103878164   0
100   103879948   0
99   103881648   0
100   103883436   0
100   103885220   0
100   103887004   0
101   103888788   0
100   103890576   0
101   103892360   0
100   103894144   0
100   103895928   0
100   103897716   0
100   103899500   0
100   103901284   0
101   103903068   0
100   103904856   0
99   103906556   0
99   103908256   0
100   103910040   0
99   103911740   0
99   103913440   0
99   103915140   0
99   103916840   0
99   103918540   0
98   103920240   0
98   103921940   0
98   103923640   0
99   103925340   0
97   103927040   0
97   103928740   0
98   103930440   0
97   103932140   0
97   103933840   0
97   103935540   0
96   103937240   0
97   103938940   0
95   103940640   0
96   103942340   0
95   103944040   0
94   103945740   0
94   103947440   0
95   103949140   0
94   103950840   0
93   103952540   0
94   103954240   0
93   103955940   0
93   103957640   0
93   103959340   0
92   103961040   0
92   103962740   0
92   103964440   0
92   103966140   0
91   103967840   0
91   103969540   0
92   103971240   0
91   103972940   0
90   103974640   0
90   103976340   0
90   103978040   0
90   103979740   0
89   103981440   0
90   103983140   0
89   103984840   0
89   103986540   0
88   103988240   0
89   103989940   0
88   103991640   0
89   103993340   0
89   103995040   0
88   103996740   0
89   103998440   0
89   104000140   0
88   104001840   0
89   104003540   0
88   104005240   0
88   104006940   0
89   104008640   0
89   104010340   0
89   104012040   0
89   104013740   0
89   104015440   0
88   104017140   0
89   104018840   0
89   104020540   0
89   104022240   0
88   104023940   0
88   104025640   0
89   104027340   0
89   104029040   0
89   104030740   0
88   104032440   0
89   104034140   0
88   104035840   0
88   104037540   0
89   104039240   0
88   104040940   0
89   104042640   0
89   104044340   0
88   104046040   0
88   104047740   0
88   104049440   0
89   104051140   0
89   104052840   0
88   104054540   0
88   104056240   0
88   104057940   0
88   104059640   0
88   104061340   0
88   104063040   0
88   104064740   0
88   104066440   0
88   104068140   0
88   104069840   0
88   104071540   0
88   104073240   0
88   104074940   0
88   104076640   0
88   104078348   0
88   104080040   0
88   104081740   0
88   104083440   0
88   104085140   0
88   104086840   0
88   104088540   0
88   104090240   0
88   104091940   0
88   104093640   0
88   104095340   0
88   104097040   0
88   104098740   0
88   104100440   0
88   104102140   0
88   104103840   0
88   104105540   0
88   104107240   0
88   104108940   0
88   104110640   0
88   104112340   0
88   104114040   0
89   104115740   0
89   104117440   0
89   104119140   0
89   104120840   0
89   104122540   0
89   104124240   0
88   104125940   0
88   104127640   0
89   104129340   0
89   104131040   0
89   104132740   0
89   104134440   0
89   104136140   0
88   104137840   0
88   104139540   0
88   104141240   0
89   104142940   0
89   104144640   0
88   104146340   0
88   104148040   0
88   104149740   0
89   104151440   0
89   104153140   0
89   104154840   0
88   104156540   0
88   104158240   0
89   104159940   0
89   104161640   0
89   104163344   0
88   104165040   0
89   104166740   0
89   104168440   0
89   104170140   0
89   104171840   0
89   104173540   0
88   104175240   0
88   104176940   0
89   104178640   0
88   104180340   0
88   104182040   0
89   104183740   0
89   104185440   0
89   104187140   0
89   104188840   0
89   104190540   0
89   104192240   0
89   104193940   0
89   104195640   0
89   104197340   0
89   104199040   0
89   104200740   0
88   104202440   0
88   104204140   0
89   104205840   0
88   104207540   0
88   104209240   0
88   104210940   0
88   104212640   0
88   104214340   0
88   104216040   0
88   104217740   0
88   104219440   0
88   104221140   0
88   104222840   0
88   104224540   0
88   104226240   0
88   104227940   0
88   104229640   0
88   104231340   0
87   104233040   0
88   104234740   0
88   104236440   0
88   104238140   0
88   104239840   0
88   104241540   0
88   104243240   0
88   104244940   0
88   104246640   0
88   104248340   0
88   104250040   0
88   104251740   0
88   104253448   0
88   104255140   0
88   104256840   0
89   104258540   0
88   104260240   0
88   104261940   0
88   104263640   0
88   104265340   0
89   104267040   0
89   104268740   0
88   104270440   0
88   104272140   0
88   104273840   0
89   104275540   0
88   104277240   0
88   104278940   0
89   104280640   0
88   104282340   0
88   104284040   0
88   104285740   0
88   104287440   0
88   104289140   0
88   104290840   0
88   104292540   0
88   104294240   0
89   104295940   0
89   104297640   0
88   104299340   0
89   104301040   0
88   104302740   0
89   104304440   0
89   104306140   0
88   104307840   0
89   104309540   0
89   104311240   0
89   104312940   0
89   104314640   0
88   104316340   0
88   104318040   0
89   104319740   0
88   104321440   0
89   104323140   0
88   104324840   0
88   104326540   0
89   104328240   0
88   104329940   0
89   104331640   0
88   104333340   0
88   104335040   0
89   104336740   0
88   104338444   0
88   104340140   0
89   104341840   0
89   104343540   0
88   104345240   0
88   104346940   0
88   104348640   0
88   104350340   0
88   104352040   0
89   104353740   0
89   104355440   0
88   104357140   0
88   104358840   0
88   104360540   0
89   104362240   0
89   104363940   0
88   104365640   0
89   104367340   0
88   104369040   0
89   104370740   0
88   104372440   0
89   104374140   0
89   104375840   0
88   104377540   0
88   104379240   0
88   104380940   0
88   104382640   0
88   104384340   0
89   104386040   0
88   104387740   0
88   104389440   0
88   104391140   0
88   104392840   0
88   104394540   0
88   104396240   0
88   104397940   0
88   104399640   0
88   104401340   0
89   104403040   0
89   104404740   0
88   104406440   0
88   104408140   0
89   104409840   0
88   104411540   0
88   104413240   0
88   104414940   0
88   104416640   0
88   104418340   0
88   104420040   0
89   104421740   0
88   104423440   0
88   104425140   0
89   104426840   0
89   104428540   0
88   104430240   0
88   104431940   0
88   104433640   0
89   104435340   0
89   104437040   0
88   104438740   0
88   104440440   0
89   104442140   0
88   104443840   0
88   104445540   0
88   104447240   0
89   104448940   0
89   104450640   0
88   104452340   0
89   104454040   0
89   104455740   0
89   104457440   0
89   104459140   0
88   104460840   0
89   104462540   0
88   104464240   0
89   104465940   0
88   104467640   0
89   104469340   0
89   104471040   0
89   104472740   0
89   104474440   0
89   104476140   0
88   104477840   0
88   104479540   0
89   104481240   0
89   104482940   0
88   104484640   0
89   104486340   0
88   104488040   0
89   104489740   0
88   104491440   0
89   104493140   0
88   104494840   0
89   104496540   0
89   104498240   0
88   104499940   0
88   104501640   0
89   104503340   0
89   104505040   0
88   104506740   0
89   104508440   0
89   104510140   0
88   104511840   0
89   104513548   0
88   104515240   0
89   104516940   0
88   104518640   0
88   104520340   0
89   104522040   0
88   104523740   0
89   104525440   0
88   104527140   0
88   104528840   0
88   104530540   0
88   104532240   0
88   104533940   0
88   104535640   0
89   104537340   0
88   104539040   0
89   104540740   0
88   104542440   0
89   104544140   0
89   104545840   0
88   104547540   0
89   104549240   0
89   104550940   0
89   104552640   0
88   104554340   0
88   104556040   0
88   104557740   0
88   104559440   0
88   104561140   0
88   104562840   0
88   104564540   0
88   104566240   0
88   104567940   0
88   104569640   0
88   104571340   0
89   104573040   0
88   104574740   0
88   104576440   0
88   104578140   0
88   104579840   0
88   104581540   0
88   104583240   0
88   104584940   0
88   104586640   0
88   104588340   0
88   104590040   0
88   104591740   0
87   104593440   0
88   104595140   0
87   104596840   0
87   104598544   0
88   104600240   0
87   104601940   0
88   104603640   0
88   104605340   0
88   104607040   0
88   104608740   0
88   104610440   0
88   104612140   0
88   104613840   0
88   104615540   0
88   104617240   0
88   104618940   0
88   104620640   0
88   104622340   0
88   104624040   0
88   104625740   0
88   104627440   0
88   104629140   0
88   104630840   0
88   104632540   0
88   104634240   0
89   104635940   0
89   104637640   0
89   104639340   0
89   104641040   0
88   104642740   0
89   104644440   0
89   104646140   0
88   104647840   0
88   104649540   0
89   104651240   0
89   104652940   0
88   104654640   0
88   104656340   0
89   104658040   0
89   104659740   0
89   104661440   0
89   104663140   0
88   104664840   0
89   104666540   0
88   104668240   0
89   104669940   0
88   104671640   0
89   104673340   0
89   104675040   0
89   104676740   0
89   104678440   0
89   104680140   0
89   104681840   0
88   104683540   0
88   104685240   0
88   104686940   0
88   104688644   0
89   104690340   0
88   104692040   0
89   104693740   0
88   104695440   0
89   104697140   0
88   104698840   0
89   104700540   0
89   104702240   0
89   104703940   0
88   104705640   0
88   104707340   0
88   104709040   0
88   104710740   0
88   104712440   0
88   104714140   0
88   104715840   0
89   104717540   0
89   104719240   0
88   104720940   0
88   104722640   0
88   104724340   0
89   104726040   0
88   104727740   0
88   104729440   0
88   104731140   0
88   104732840   0
89   104734540   0
88   104736240   0
88   104737940   0
89   104739640   0
88   104741340   0
89   104743040   0
89   104744740   0
89   104746440   0
88   104748140   0
88   104749840   0
89   104751540   0
88   104753240   0
88   104754940   0
88   104756640   0
88   104758340   0
88   104760040   0
88   104761740   0
89   104763440   0
89   104765140   0
89   104766840   0
89   104768540   0
89   104770240   0
89   104771940   0
88   104773644   0
89   104775340   0
88   104777040   0
89   104778740   0
89   104780440   0
88   104782140   0
88   104783840   0
88   104785540   0
88   104787240   0
89   104788940   0
89   104790640   0
89   104792340   0
89   104794040   0
89   104795740   0
89   104797440   0
88   104799140   0
89   104800840   0
89   104802540   0
89   104804240   0
89   104805940   0
89   104807640   0
88   104809340   0
89   104811040   0
89   104812740   0
88   104814440   0
88   104816140   0
88   104817840   0
89   104819540   0
89   104821240   0
88   104822940   0
89   104824640   0
88   104826340   0
89   104828040   0
88   104829740   0
88   104831440   0
88   104833140   0
88   104834840   0
88   104836540   0
89   104838240   0
89   104839940   0
89   104841640   0
88   104843340   0
89   104845040   0
89   104846740   0
89   104848440   0
89   104850140   0
88   104851840   0
88   104853540   0
89   104855240   0
88   104856940   0
89   104858640   0
89   104860340   0
88   104862040   0
88   104863740   0
89   104865440   0
89   104867140   0
88   104868840   0
88   104870540   0
88   104872240   0
88   104873940   0
88   104875640   0
88   104877340   0
89   104879040   0
89   104880740   0
88   104882440   0
88   104884140   0
89   104885840   0
88   104887540   0
89   104889240   0
89   104890940   0
89   104892640   0
88   104894340   0
88   104896040   0
89   104897740   0
89   104899440   0
89   104901140   0
89   104902840   0
89   104904540   0
88   104906240   0
88   104907940   0
88   104909640   0
88   104911340   0
89   104913040   0
89   104914740   0
89   104916440   0
88   104918140   0
88   104919840   0
88   104921540   0
89   104923240   0
88   104924940   0
88   104926640   0
89   104928340   0
88   104930040   0
88   104931740   0
88   104933440   0
88   104935140   0
88   104936840   0
89   104938540   0
88   104940240   0
88   104941940   0
89   104943640   0
88   104945340   0
89   104947040   0
88   104948744   0
88   104950440   0
88   104952140   0
88   104953840   0
88   104955540   0
88   104957240   0
88   104958940   0
88   104960640   0
88   104962340   0
88   104964040   0
89   104965740   0
88   104967440   0
88   104969140   0
88   104970840   0
89   104972540   0
88   104974240   0
88   104975940   0
88   104977640   0
88   104979340   0
88   104981040   0
88   104982740   0
89   104984440   0
89   104986140   0
88   104987840   0
88   104989540   0
89   104991240   0
88   104992940   0
88   104994640   0
88   104996340   0
89   104998040   0
88   104999740   0
89   105001440   0
89   105003140   0
88   105004840   0
89   105006540   0
88   105008240   0
88   105009940   0
88   105011640   0
88   105013340   0
88   105015040   0
88   105016740   0
89   105018440   0
89   105020140   0
88   105021840   0
89   105023540   0
88   105025240   0
88   105026940   0
88   105028640   0
88   105030340   0
88   105032040   0
88   105033744   0
88   105035440   0
89   105037140   0
88   105038840   0
88   105040540   0
88   105042240   0
88   105043940   0
88   105045640   0
88   105047340   0
88   105049040   0
88   105050740   0
88   105052440   0
89   105054140   0
88   105055840   0
88   105057540   0
88   105059240   0
88   105060940   0
88   105062640   0
88   105064340   0
88   105066040   0
88   105067740   0
88   105069440   0
88   105071140   0
88   105072840   0
88   105074540   0
88   105076240   0
88   105077940   0
88   105079640   0
88   105081340   0
88   105083040   0
88   105084740   0
88   105086440   0
88   105088140   0
88   105089840   0
88   105091540   0
88   105093240   0
88   105094940   0
88   105096640   0
88   105098340   0
88   105100040   0
87   105101740   0
88   105103440   0
87   105105140   0
87   105106840   0
87   105108540   0
87   105110240   0
86   105111940   0
87   105113640   0
87   105115340   0
86   105117040   0
87   105118740   0
86   105120440   0
87   105122140   0
86   105123844   0
86   105125540   0
86   105127240   0
86   105128940   0
85   105130640   0
84   105132340   0
84   105134040   0
85   105135740   0
85   105137440   0
85   105139140   0
83   105140840   0
83   105142540   0
84   105144240   0
83   105145940   0
83   105147640   0
83   105149340   0
82   105151040   0
82   105152740   0
82   105154440   0
83   105156140   0
81   105157840   0
82   105159540   0
81   105161240   0
81   105162940   0
81   105164640   0
80   105166340   0
81   105168040   0
79   105169740   0
81   105171440   0
79   105173140   0
79   105174840   0
79   105176540   0
79   105178240   0
78   105179940   0
79   105181640   0
79   105183340   0
78   105185040   0
79   105186740   0
78   105188440   0
78   105190140   0
78   105191840   0
77   105193540   0
77   105195240   0
76   105196940   0
76   105198640   0
76   105200340   0
76   105202040   0
76   105203740   0
76   105205440   0
75   105207140   0
75   105208844   0
74   105210540   0
74   105212240   0
74   105213940   0
73   105215640   0
73   105217340   0
72   105219040   0
71   105220740   0
72   105222440   0
71   105224140   0
71   105225840   0
71   105227540   0
71   105229240   0
70   105230940   0
71   105232640   0
70   105234340   0
69   105236040   0
70   105237740   0
69   105239440   0
68   105241140   0
67   105242840   0
67   105244540   0
67   105246240   0
66   105247940   0
66   105249640   0
66   105251340   0
64   105253040   0
64   105254740   0
63   105256440   0
63   105258140   0
62   105259840   0
62   105261540   0
62   105263240   0
61   105264940   0
60   105266640   0
60   105268340   0
59   105270040   0
59   105271740   0
58   105273440   0
57   105275140   0
56   105276840   0
55   105278540   0
54   105280240   0
54   105281940   0
53   105283640   0
52   105285340   0
51   105287040   0
50   105288740   0
49   105290440   0
48   105292140   0
48   105293840   0
48   105295540   0
46   105297240   0
46   105298940   0
46   105300640   0
44   105302340   0
44   105304040   0
43   105305740   0
44   105307440   0
42   105309140   0
43   105310840   0
42   105312540   0
41   105314240   0
40   105315940   0
40   105317640   0
39   105319340   0
39   105321040   0
39   105322740   0
38   105324440   0
38   105326140   0
39   105327840   0
38   105329540   0
37   105331240   0
36   105332940   0
37   105334640   0
36   105336340   0
36   105338040   0
36   105339740   0
35   105341440   0
35   105343140   0
35   105344840   0
35   105346540   0
34   105348240   0
34   105349940   0
35   105351640   0
35   105353340   0
35   105355040   0
34   105356740   0
33   105358440   0
34   105360140   0
33   105361840   0
33   105363540   0
34   105365240   0
33   105366940   0
33   105368640   0
32   105370340   0
33   105372040   0
32   105373740   0
33   105375440   0
33   105377140   0
34   105378840   0
33   105380540   0
34   105382240   0
33   105383944   0
34   105385640   0
33   105387340   0
33   105389040   0
34   105390740   0
33   105392440   0
35   105394140   0
34   105395840   0
34   105397540   0
35   105399240   0
35   105400940   0
35   105402640   0
36   105404340   0
35   105406040   0
35   105407740   0
37   105409440   0
37   105411140   0
38   105412840   0
38   105414540   0
38   105416240   0
39   105417940   0
39   105419640   0
39   105421340   0
40   105423040   0
41   105424740   0
42   105426440   0
41   105428140   0
43   105429840   0
44   105431540   0
44   105433240   0
46   105434940   0
46   105436640   0
47   105438340   0
49   105440040   0
51   105441740   0
51   105443440   0
53   105445140   0
52   105446840   0
55   105448540   0
54   105450240   0
56   105451940   0
57   105453640   0
57   105455340   0
59   105457040   0
60   105458740   0
59   105460440   0
60   105462140   0
60   105463840   0
60   105465540   0
61   105467240   0
61   105468948   0
61   105470640   0
63   105472340   0
62   105474040   0
63   105475740   0
63   105477440   0
63   105479140   0
65   105480840   0
65   105482540   0
66   105484240   0
66   105485940   0
67   105487640   0
67   105489340   0
68   105491040   0
68   105492740   0
68   105494440   0
70   105496140   0
70   105497840   0
70   105499540   0
71   105501240   0
71   105502940   0
71   105504640   0
71   105506340   0
71   105508040   0
71   105509740   0
72   105511440   0
72   105513140   0
72   105514840   0
73   105516540   0
72   105518240   0
74   105519940   0
74   105521640   0
74   105523340   0
75   105525040   0
75   105526740   0
75   105528440   0
75   105530140   0
76   105531840   0
76   105533540   0
76   105535240   0
76   105536940   0
76   105538640   0
76   105540340   0
77   105542040   0
77   105543740   0
77   105545440   0
77   105547140   0
76   105548840   0
78   105550540   0
78   105552240   0
78   105553940   0
78   105555640   0
79   105557340   0
79   105559044   0
79   105560740   0
78   105562440   0
79   105564140   0
78   105565840   0
79   105567540   0
79   105569240   0
79   105570940   0
79   105572640   0
79   105574340   0
79   105576040   0
79   105577740   0
79   105579440   0
79   105581140   0
79   105582840   0
79   105584540   0
79   105586240   0
79   105587940   0
79   105589640   0
79   105591340   0
79   105593040   0
79   105594740   0
79   105596440   0
79   105598140   0
79   105599840   0
79   105601540   0
79   105603240   0
79   105604940   0
79   105606640   0
79   105608340   0
79   105610040   0
80   105611740   0
79   105613440   0
80   105615140   0
79   105616840   0
80   105618540   0
81   105620240   0
80   105621940   0
81   105623640   0
81   105625340   0
80   105627040   0
81   105628740   0
80   105630440   0
80   105632140   0
81   105633840   0
81   105635540   0
82   105637240   0
81   105638940   0
81   105640640   0
82   105642340   0
81   105644044   0
82   105645740   0
82   105647440   0
83   105649140   0
83   105650840   0
84   105652540   0
83   105654240   0
83   105655940   0
84   105657640   0
84   105659340   0
84   105661040   0
83   105662740   0
84   105664440   0
85   105666140   0
85   105667840   0
85   105669540   0
84   105671240   0
85   105672940   0
85   105674640   0
86   105676340   0
86   105678040   0
86   105679740   0
87   105681440   0
86   105683140   0
87   105684840   0
88   105686540   0
87   105688240   0
88   105689940   0
88   105691640   0
88   105693340   0
88   105695040   0
88   105696740   0
88   105698440   0
88   105700140   0
88   105701840   0
89   105703540   0
89   105705240   0
89   105706940   0
89   105708640   0
89   105710340   0
89   105712040   0
89   105713740   0
90   105715440   0
88   105717140   0
89   105718840   0
89   105720540   0
88   105722240   0
89   105723940   0
88   105725640   0
89   105727340   0
88   105729044   0
88   105730740   0
89   105732440   0
89   105734140   0
89   105735840   0
89   105737540   0
89   105739240   0
89   105740940   0
88   105742640   0
88   105744340   0
88   105746040   0
88   105747740   0
88   105749440   0
88   105751140   0
88   105752840   0
87   105754540   0
87   105756240   0
87   105757940   0
87   105759640   0
86   105761340   0
87   105763040   0
86   105764740   0
85   105766440   0
84   105768140   0
85   105769840   0
84   105771540   0
84   105773240   0
84   105774940   0
84   105776640   0
83   105778340   0
82   105780040   0
83   105781740   0
83   105783440   0
81   105785140   0
82   105786840   0
81   105788540   0
81   105790240   0
81   105791940   0
79   105793640   0
80   105795340   0
79   105797040   0
79   105798740   0
79   105800440   0
78   105802140   0
78   105803840   0
78   105805540   0
76   105807240   0
77   105808940   0
76   105810640   0
76   105812340   0
76   105814040   0
74   105815740   0
75   105817440   0
73   105819144   0
73   105820840   0
72   105822540   0
72   105824240   0
71   105825940   0
71   105827640   0
70   105829340   0
69   105831040   0
69   105832740   0
67   105834440   0
67   105836140   0
67   105837840   0
66   105839540   0
65   105841240   0
64   105842940   0
63   105844640   0
63   105846340   0
62   105848040   0
61   105849740   0
61   105851440   0
59   105853140   0
59   105854840   0
58   105856540   0
57   105858240   0
56   105859940   0
55   105861640   0
55   105863340   0
54   105865040   0
54   105866740   0
52   105868440   0
52   105870140   0
51   105871840   0
50   105873540   0
50   105875240   0
49   105876940   0
48   105878640   0
46   105880340   0
46   105882040   0
45   105883740   0
44   105885440   0
43   105887140   0
42   105888840   0
41   105890540   0
39   105892240   0
39   105893940   0
39   105895640   0
39   105897340   0
38   105899040   0
37   105900740   0
36   105902440   0
35   105904144   0
36   105905840   0
36   105907540   0
35   105909240   0
35   105910940   0
34   105912640   0
35   105914340   0
35   105916040   0
34   105917740   0
35   105919440   0
35   105921140   0
35   105922840   0
36   105924540   0
36   105926240   0
36   105927940   0
36   105929640   0
37   105931340   0
37   105933040   0
36   105934740   0
38   105936440   0
38   105938140   0
38   105939840   0
38   105941540   0
39   105943240   0
39   105944940   0
39   105946640   0
39   105948340   0
41   105950040   0
42   105951740   0
41   105953440   0
43   105955140   0
44   105956840   0
44   105958540   0
44   105960240   0
45   105961940   0
47   105963640   0
47   105965340   0
48   105967040   0
48   105968740   0
50   105970440   0
51   105972140   0
51   105973840   0
51   105975540   0
52   105977240   0
54   105978940   0
55   105980640   0
56   105982340   0
57   105984040   0
58   105985740   0
59   105987440   0
60   105989140   0
62   105990840   0
63   105992540   0
63   105994244   0
64   105995940   0
66   105997640   0
67   105999340   0
68   106001040   0
70   106002740   0
71   106004440   0
71   106006140   0
72   106007840   0
71   106009540   0
71   106011240   0
71   106012940   0
73   106014640   0
73   106016340   0
74   106018040   0
75   106019740   0
76   106021440   0
78   106023140   0
79   106024840   0
80   106026540   0
81   106028240   0
83   106029940   0
84   106031640   0
85   106033340   0
86   106035040   0
87   106036740   0
86   106038440   0
87   106040140   0
86   106041840   0
86   106043540   0
86   106045240   0
85   106046940   0
84   106048640   0
84   106050340   0
83   106052040   0
83   106053740   0
83   106055440   0
82   106057140   0
82   106058840   0
81   106060540   0
81   106062240   0
82   106063940   0
81   106065640   0
81   106067340   0
81   106069040   0
81   106070740   0
81   106072440   0
81   106074140   0
82   106075840   0
81   106077540   0
81   106079244   0
80   106080940   0
81   106082640   0
81   106084340   0
81   106086040   0
81   106087740   0
80   106089440   0
80   106091140   0
80   106092840   0
79   106094540   0
80   106096240   0
79   106097940   0
79   106099640   0
79   106101340   0
78   106103040   0
78   106104740   0
77   106106440   0
77   106108140   0
77   106109840   0
77   106111540   0
76   106113240   0
76   106114940   0
75   106116640   0
75   106118340   0
75   106120040   0
75   106121740   0
74   106123440   0
73   106125140   0
74   106126840   0
72   106128540   0
73   106130240   0
73   106131940   0
71   106133640   0
71   106135340   0
71   106137040   0
71   106138740   0
71   106140440   0
71   106142140   0
71   106143840   0
70   106145540   0
71   106147240   0
71   106148940   0
71   106150640   0
70   106152340   0
71   106154040   0
71   106155740   0
70   106157440   0
71   106159140   0
70   106160840   0
70   106162540   0
71   106164240   0
70   106165940   0
70   106167640   0
70   106169340   0
70   106171040   0
71   106172740   0
71   106174440   0
70   106176140   0
71   106177840   0
70   106179540   0
70   106181240   0
71   106182940   0
71   106184640   0
71   106186340   0
71   106188040   0
71   106189740   0
71   106191440   0
71   106193140   0
70   106194840   0
71   106196540   0
71   106198240   0
71   106199940   0
71   106201640   0
71   106203340   0
71   106205040   0
71   106206740   0
71   106208440   0
71   106210140   0
71   106211840   0
71   106213540   0
71   106215240   0
71   106216940   0
71   106218640   0
71   106220340   0
71   106222040   0
71   106223740   0
71   106225440   0
71   106227140   0
71   106228840   0
73   106230540   0
73   106232240   0
71   106233940   0
73   106235640   0
73   106237340   0
73   106239040   0
73   106240740   0
73   106242440   0
73   106244140   0
73   106245840   0
73   106247540   0
73   106249240   0
74   106250940   0
74   106252640   0
74   106254344   0
73   106256040   0
74   106257740   0
73   106259440   0
74   106261140   0
74   106262840   0
73   106264540   0
73   106266240   0
73   106267940   0
72   106269640   0
73   106271340   0
72   106273040   0
71   106274740   0
72   106276440   0
71   106278140   0
71   106279840   0
71   106281540   0
71   106283240   0
71   106284940   0
71   106286640   0
71   106288340   0
71   106290040   0
71   106291740   0
71   106293440   0
71   106295140   0
71   106296840   0
70   106298540   0
71   106300240   0
71   106301940   0
70   106303640   0
70   106305340   0
71   106307040   0
71   106308740   0
71   106310440   0
71   106312140   0
71   106313840   0
70   106315540   0
70   106317240   0
70   106318940   0
71   106320640   0
71   106322340   0
71   106324040   0
70   106325740   0
70   106327440   0
71   106329140   0
70   106330840   0
71   106332540   0
71   106334240   0
71   106335940   0
70   106337640   0
70   106339344   0
71   106341040   0
71   106342740   0
71   106344440   0
71   106346140   0
70   106347840   0
71   106349540   0
70   106351240   0
71   106352940   0
71   106354640   0
71   106356340   0
71   106358040   0
71   106359740   0
71   106361440   0
71   106363140   0
70   106364840   0
71   106366540   0
71   106368240   0
71   106369940   0
71   106371640   0
71   106373340   0
71   106375040   0
71   106376740   0
71   106378440   0
71   106380140   0
70   106381840   0
71   106383540   0
71   106385240   0
71   106386940   0
71   106388640   0
71   106390340   0
71   106392040   0
71   106393740   0
71   106395440   0
71   106397140   0
71   106398840   0
71   106400540   0
71   106402240   0
71   106403940   0
71   106405640   0
71   106407340   0
71   106409040   0
71   106410740   0
71   106412440   0
71   106414140   0
71   106415840   0
71   106417540   0
71   106419240   0
71   106420940   0
71   106422640   0
71   106424340   0
71   106426040   0
71   106427740   0
71   106429444   0
71   106431140   0
71   106432840   0
71   106434540   0
71   106436240   0
71   106437940   0
71   106439640   0
71   106441340   0
71   106443040   0
71   106444740   0
71   106446440   0
71   106448140   0
71   106449840   0
71   106451540   0
71   106453240   0
71   106454940   0
71   106456640   0
71   106458340   0
71   106460040   0
71   106461740   0
71   106463440   0
71   106465140   0
71   106466840   0
71   106468540   0
71   106470240   0
71   106471940   0
71   106473640   0
71   106475340   0
71   106477040   0
71   106478740   0
71   106480440   0
71   106482140   0
71   106483840   0
71   106485540   0
71   106487240   0
71   106488940   0
70   106490640   0
71   106492340   0
71   106494040   0
71   106495740   0
71   106497440   0
70   106499140   0
70   106500840   0
71   106502540   0
71   106504240   0
70   106505940   0
71   106507640   0
70   106509340   0
70   106511040   0
70   106512740   0
70   106514444   0
70   106516140   0
70   106517840   0
70   106519540   0
71   106521240   0
71   106522940   0
70   106524640   0
71   106526340   0
71   106528040   0
70   106529740   0
70   106531440   0
70   106533140   0
70   106534840   0
71   106536540   0
70   106538240   0
71   106539940   0
71   106541640   0
70   106543340   0
71   106545040   0
71   106546740   0
70   106548440   0
70   106550140   0
70   106551840   0
71   106553540   0
70   106555240   0
70   106556940   0
71   106558640   0
71   106560340   0
70   106562040   0
69   106563740   0
70   106565440   0
70   106567140   0
70   106568840   0
69   106570540   0
70   106572240   0
68   106573940   0
68   106575640   0
68   106577340   0
67   106579040   0
68   106580740   0
67   106582440   0
66   106584140   0
66   106585840   0
67   106587540   0
65   106589240   0
66   106590940   0
66   106592640   0
65   106594340   0
65   106596040   0
63   106597740   0
63   106599444   0
63   106601140   0
63   106602840   0
63   106604540   0
63   106606240   0
62   106607940   0
62   106609640   0
61   106611340   0
61   106613040   0
61   106614740   0
62   106616440   0
60   106618140   0
61   106619840   0
60   106621540   0
60   106623240   0
60   106624940   0
60   106626640   0
59   106628340   0
59   106630040   0
60   106631740   0
60   106633440   0
60   106635140   0
58   106636840   0
59   106638540   0
59   106640240   0
57   106641940   0
58   106643640   0
57   106645340   0
56   106647040   0
56   106648740   0
56   106650440   0
56   106652140   0
56   106653840   0
57   106655540   0
56   106657240   0
55   106658940   0
56   106660640   0
55   106662340   0
55   106664040   0
54   106665740   0
55   106667440   0
54   106669140   0
55   106670840   0
55   106672540   0
53   106674240   0
54   106675940   0
54   106677640   0
54   106679340   0
54   106681040   0
53   106682740   0
53   106684440   0
52   106686140   0
51   106687840   0
52   106689544   0
52   106691240   0
52   106692940   0
51   106694640   0
51   106696340   0
50   106698040   0
49   106699740   0
50   106701440   0
49   106703140   0
49   106704840   0
49   106706540   0
49   106708240   0
49   106709940   0
48   106711640   0
48   106713340   0
48   106715040   0
48   106716740   0
48   106718440   0
48   106720140   0
48   106721840   0
47   106723540   0
47   106725240   0
46   106726940   0
47   106728640   0
46   106730340   0
46   106732040   0
46   106733740   0
45   106735440   0
45   106737140   0
45   106738840   0
46   106740540   0
46   106742240   0
46   106743940   0
45   106745640   0
44   106747340   0
45   106749040   0
44   106750740   0
45   106752440   0
44   106754140   0
45   106755840   0
44   106757540   0
44   106759240   0
44   106760940   0
44   106762640   0
43   106764340   0
44   106766040   0
43   106767740   0
43   106769440   0
44   106771140   0
43   106772840   0
43   106774548   0
44   106776240   0
43   106777940   0
43   106779640   0
43   106781340   0
43   106783040   0
43   106784740   0
43   106786440   0
44   106788140   0
43   106789840   0
44   106791540   0
44   106793240   0
44   106794940   0
43   106796640   0
43   106798340   0
44   106800040   0
44   106801740   0
44   106803440   0
44   106805140   0
45   106806840   0
44   106808540   0
44   106810240   0
45   106811940   0
46   106813640   0
46   106815340   0
46   106817040   0
46   106818740   0
46   106820440   0
47   106822140   0
48   106823840   0
47   106825540   0
48   106827240   0
48   106828940   0
48   106830640   0
49   106832340   0
49   106834040   0
49   106835740   0
50   106837440   0
50   106839140   0
50   106840840   0
51   106842540   0
51   106844240   0
51   106845940   0
52   106847640   0
52   106849340   0
52   106851040   0
54   106852740   0
54   106854440   0
53   106856140   0
54   106857840   0
54   106859540   0
54   106861240   0
55   106862940   0
54   106864644   0
54   106866340   0
54   106868040   0
54   106869740   0
54   106871440   0
55   106873140   0
55   106874840   0
54   106876540   0
55   106878240   0
54   106879940   0
54   106881640   0
54   106883340   0
54   106885040   0
55   106886740   0
56   106888440   0
56   106890140   0
56   106891840   0
56   106893540   0
56   106895240   0
55   106896940   0
55   106898640   0
56   106900340   0
56   106902040   0
56   106903740   0
55   106905440   0
56   106907140   0
56   106908840   0
56   106910540   0
56   106912240   0
56   106913940   0
56   106915640   0
56   106917340   0
56   106919040   0
56   106920740   0
56   106922440   0
56   106924140   0
56   106925840   0
55   106927540   0
55   106929240   0
55   106930940   0
56   106932640   0
55   106934340   0
55   106936040   0
56   106937740   0
55   106939440   0
55   106941140   0
56   106942840   0
56   106944540   0
56   106946240   0
56   106947940   0
56   106949648   0
56   106951340   0
56   106953040   0
55   106954740   0
56   106956440   0
55   106958140   0
55   106959840   0
55   106961540   0
55   106963240   0
55   106964940   0
55   106966640   0
55   106968340   0
55   106970040   0
54   106971740   0
55   106973440   0
54   106975140   0
53   106976840   0
53   106978540   0
54   106980240   0
53   106981940   0
54   106983640   0
53   106985340   0
53   106987040   0
54   106988740   0
53   106990440   0
53   106992140   0
52   106993840   0
52   106995540   0
51   106997240   0
52   106998940   0
52   107000640   0
51   107002340   0
51   107004040   0
51   107005740   0
51   107007440   0
51   107009140   0
50   107010840   0
51   107012540   0
50   107014240   0
50   107015940   0
49   107017640   0
50   107019340   0
50   107021040   0
50   107022740   0
49   107024440   0
49   107026140   0
49   107027840   0
49   107029540   0
49   107031240   0
49   107032940   0
48   107034640   0
48   107036340   0
49   107038040   0
49   107039740   0
49   107041440   0
48   107043140   0
48   107044840   0
49   107046540   0
48   107048240   0
49   107049940   0
48   107051640   0
48   107053340   0
48   107055040   0
48   107056740   0
48   107058440   0
48   107060140   0
48   107061840   0
48   107063540   0
48   107065240   0
48   107066940   0
48   107068640   0
47   107070340   0
48   107072040   0
48   107073740   0
48   107075440   0
49   107077140   0
48   107078840   0
49   107080540   0
49   107082240   0
48   107083940   0
48   107085640   0
48   107087340   0
49   107089040   0
49   107090740   0
49   107092440   0
49   107094140   0
49   107095840   0
49   107097540   0
49   107099240   0
48   107100940   0
49   107102640   0
48   107104340   0
49   107106040   0
49   107107740   0
48   107109440   0
49   107111140   0
48   107112840   0
49   107114540   0
49   107116240   0
49   107117940   0
49   107119640   0
49   107121340   0
49   107123040   0
49   107124744   0
49   107126440   0
50   107128140   0
50   107129840   0
49   107131540   0
49   107133240   0
49   107134940   0
50   107136640   0
50   107138340   0
50   107140040   0
49   107141740   0
49   107143440   0
49   107145140   0
49   107146840   0
49   107148540   0
49   107150240   0
49   107151940   0
49   107153640   0
50   107155340   0
50   107157040   0
49   107158740   0
51   107160440   0
50   107162140   0
50   107163840   0
51   107165540   0
51   107167240   0
50   107168940   0
51   107170640   0
50   107172340   0
51   107174040   0
51   107175740   0
51   107177440   0
51   107179140   0
51   107180840   0
50   107182540   0
50   107184240   0
50   107185940   0
51   107187640   0
50   107189340   0
51   107191040   0
51   107192740   0
50   107194440   0
51   107196140   0
50   107197840   0
49   107199540   0
49   107201240   0
51   107202940   0
51   107204640   0
51   107206340   0
50   107208040   0
49   107209744   0
51   107211440   0
50   107213140   0
51   107214840   0
51   107216540   0
50   107218240   0
50   107219940   0
50   107221640   0
51   107223340   0
51   107225040   0
50   107226740   0
50   107228440   0
51   107230140   0
50   107231840   0
51   107233540   0
50   107235240   0
51   107236940   0
51   107238640   0
51   107240340   0
51   107242040   0
51   107243740   0
51   107245440   0
51   107247140   0
51   107248840   0
51   107250540   0
51   107252240   0
51   107253940   0
51   107255640   0
51   107257340   0
51   107259040   0
51   107260740   0
51   107262440   0
52   107264140   0
51   107265840   0
51   107267540   0
52   107269240   0
51   107270940   0
52   107272640   0
51   107274340   0
51   107276040   0
51   107277740   0
51   107279440   0
51   107281140   0
51   107282840   0
51   107284540   0
51   107286240   0
51   107287940   0
51   107289640   0
51   107291340   0
51   107293040   0
51   107294740   0
51   107296440   0
51   107298140   0
52   107299844   0
52   107301540   0
51   107303240   0
51   107304940   0
52   107306640   0
52   107308340   0
51   107310040   0
51   107311740   0
51   107313440   0
51   107315140   0
51   107316840   0
51   107318540   0
52   107320240   0
52   107321940   0
52   107323640   0
52   107325340   0
52   107327040   0
51   107328740   0
52   107330440   0
53   107332140   0
52   107333840   0
52   107335540   0
53   107337240   0
52   107338940   0
52   107340640   0
53   107342340   0
53   107344040   0
53   107345740   0
52   107347440   0
52   107349140   0
53   107350840   0
54   107352540   0
52   107354240   0
53   107355940   0
54   107357640   0
54   107359340   0
54   107361040   0
54   107362740   0
54   107364440   0
53   107366140   0
54   107367840   0
54   107369540   0
54   107371240   0
55   107372940   0
55   107374640   0
55   107376340   0
55   107378040   0
55   107379740   0
56   107381440   0
55   107383140   0
55   107384844   0
55   107386540   0
56   107388240   0
56   107389940   0
56   107391640   0
56   107393340   0
56   107395040   0
56   107396740   0
57   107398440   0
56   107400140   0
56   107401840   0
56   107403540   0
56   107405240   0
57   107406940   0
56   107408640   0
56   107410340   0
57   107412040   0
57   107413740   0
57   107415440   0
56   107417140   0
57   107418840   0
57   107420540   0
57   107422240   0
56   107423940   0
56   107425640   0
57   107427340   0
57   107429040   0
56   107430740   0
56   107432440   0
56   107434140   0
56   107435840   0
57   107437540   0
56   107439240   0
56   107440940   0
56   107442640   0
56   107444340   0
57   107446040   0
56   107447740   0
57   107449440   0
56   107451140   0
56   107452840   0
57   107454540   0
56   107456240   0
56   107457940   0
57   107459640   0
57   107461340   0
57   107463040   0
57   107464740   0
56   107466440   0
56   107468140   0
56   107469840   0
56   107471540   0
57   107473240   0
57   107474940   0
56   107476640   0
56   107478340   0
57   107480040   0
57   107481740   0
57   107483440   0
57   107485140   0
56   107486840   0
56   107488540   0
56   107490240   0
56   107491940   0
57   107493640   0
56   107495340   0
56   107497040   0
57   107498740   0
56   107500440   0
56   107502140   0
57   107503840   0
57   107505540   0
57   107507240   0
57   107508940   0
57   107510640   0
57   107512340   0
56   107514040   0
57   107515740   0
56   107517440   0
57   107519140   0
56   107520840   0
56   107522540   0
57   107524240   0
56   107525940   0
57   107527640   0
57   107529340   0
56   107531040   0
57   107532740   0
57   107534440   0
57   107536140   0
57   107537840   0
57   107539540   0
57   107541240   0
57   107542940   0
57   107544640   0
56   107546340   0
56   107548040   0
57   107549740   0
57   107551440   0
56   107553140   0
57   107554840   0
57   107556540   0
57   107558240   0
56   107559944   0
56   107561640   0
56   107563340   0
56   107565040   0
56   107566740   0
56   107568440   0
56   107570140   0
57   107571840   0
56   107573540   0
56   107575240   0
56   107576940   0
56   107578640   0
56   107580340   0
56   107582040   0
57   107583740   0
56   107585440   0
56   107587140   0
56   107588840   0
56   107590540   0
56   107592240   0
56   107593940   0
56   107595640   0
56   107597340   0
56   107599040   0
56   107600740   0
56   107602440   0
56   107604140   0
56   107605840   0
56   107607540   0
56   107609240   0
56   107610940   0
55   107612640   0
56   107614340   0
56   107616040   0
56   107617740   0
56   107619440   0
56   107621140   0
57   107622840   0
57   107624540   0
57   107626240   0
57   107627940   0
57   107629640   0
56   107631340   0
57   107633040   0
58   107634740   0
57   107636440   0
59   107638140   0
59   107639840   0
59   107641540   0
59   107643240   0
59   107644944   0
59   107646640   0
60   107648340   0
60   107650040   0
60   107651740   0
61   107653440   0
61   107655140   0
61   107656840   0
62   107658540   0
62   107660240   0
62   107661940   0
62   107663640   0
63   107665340   0
63   107667040   0
63   107668740   0
63   107670440   0
64   107672140   0
63   107673840   0
65   107675540   0
64   107677240   0
65   107678940   0
65   107680640   0
66   107682340   0
66   107684040   0
65   107685740   0
67   107687440   0
67   107689140   0
68   107690840   0
67   107692540   0
68   107694240   0
69   107695940   0
68   107697640   0
68   107699340   0
70   107701040   0
71   107702740   0
70   107704440   0
71   107706140   0
71   107707840   0
71   107709540   0
71   107711240   0
71   107712940   0
71   107714640   0
71   107716340   0
71   107718040   0
71   107719740   0
71   107721440   0
71   107723140   0
71   107724840   0
71   107726540   0
71   107728240   0
71   107729940   0
71   107731640   0
71   107733340   0
71   107735044   0
71   107736740   0
71   107738440   0
71   107740140   0
71   107741840   0
71   107743540   0
71   107745240   0
71   107746940   0
71   107748640   0
71   107750340   0
71   107752040   0
71   107753740   0
71   107755440   0
71   107757140   0
71   107758840   0
71   107760540   0
71   107762240   0
71   107763940   0
71   107765640   0
71   107767340   0
71   107769040   0
71   107770740   0
71   107772440   0
71   107774140   0
70   107775840   0
70   107777540   0
71   107779240   0
70   107780940   0
70   107782640   0
70   107784340   0
70   107786040   0
71   107787740   0
71   107789440   0
70   107791140   0
71   107792840   0
71   107794540   0
70   107796240   0
70   107797940   0
71   107799640   0
71   107801340   0
70   107803040   0
71   107804740   0
71   107806440   0
70   107808140   0
70   107809840   0
71   107811540   0
70   107813240   0
70   107814940   0
70   107816640   0
70   107818340   0
70   107820044   0
70   107821740   0
71   107823440   0
70   107825140   0
71   107826840   0
71   107828540   0
71   107830240   0
71   107831940   0
71   107833640   0
70   107835340   0
71   107837040   0
71   107838740   0
71   107840440   0
70   107842140   0
70   107843840   0
70   107845540   0
70   107847240   0
70   107848940   0
70   107850640   0
70   107852340   0
71   107854040   0
70   107855740   0
70   107857440   0
71   107859140   0
71   107860840   0
71   107862540   0
70   107864240   0
71   107865940   0
70   107867640   0
71   107869340   0
71   107871040   0
70   107872740   0
70   107874440   0
70   107876140   0
71   107877840   0
70   107879540   0
70   107881240   0
70   107882940   0
70   107884640   0
70   107886340   0
71   107888040   0
70   107889740   0
70   107891440   0
70   107893140   0
69   107894840   0
69   107896540   0
70   107898240   0
70   107899940   0
69   107901640   0
70   107903340   0
69   107905040   0
69   107906740   0
69   107908440   0
68   107910140   0
67   107911840   0
68   107913540   0
67   107915240   0
67   107916940   0
67   107918640   0
67   107920340   0
67   107922040   0
66   107923740   0
67   107925440   0
67   107927140   0
65   107928840   0
65   107930540   0
65   107932240   0
64   107933940   0
64   107935640   0
63   107937340   0
63   107939040   0
63   107940740   0
63   107942440   0
63   107944140   0
62   107945840   0
62   107947540   0
61   107949240   0
61   107950940   0
60   107952640   0
61   107954340   0
60   107956040   0
60   107957740   0
59   107959440   0
59   107961140   0
59   107962840   0
57   107964540   0
56   107966240   0
56   107967940   0
55   107969640   0
56   107971340   0
56   107973040   0
55   107974740   0
54   107976440   0
53   107978140   0
53   107979840   0
53   107981540   0
52   107983240   0
52   107984940   0
52   107986640   0
51   107988340   0
51   107990040   0
51   107991740   0
51   107993440   0
49   107995144   0
49   107996840   0
49   107998540   0
48   108000240   0
49   108001940   0
49   108003640   0
48   108005340   0
48   108007040   0
48   108008740   0
48   108010440   0
48   108012140   0
47   108013840   0
48   108015540   0
47   108017240   0
47   108018940   0
47   108020640   0
47   108022340   0
47   108024040   0
47   108025740   0
46   108027440   0
46   108029140   0
46   108030840   0
46   108032540   0
46   108034240   0
46   108035940   0
45   108037640   0
46   108039340   0
45   108041040   0
46   108042740   0
46   108044440   0
45   108046140   0
45   108047840   0
45   108049540   0
45   108051240   0
45   108052940   0
44   108054640   0
44   108056340   0
44   108058040   0
