LabVIEW Measurement,
Writer_Version,2
Reader_Version,2
Separator,Comma
Decimal_Separator,.
Multi_Headings,Yes
X_Columns,One
Time_Pref,Absolute
Operator,labuser
Date,2022/03/27
Time,18:13:21.6750278499425851425
***End_of_Header***,
,
Channels,1,
Samples,10000,
Date,2022/03/27,
Time,18:13:21.6750278499425851425,
Y_Unit_Label,Volts,
X_Dimension,Time,
X0,0.0000000000000000E+0,
Delta_X,0.000500,
***End_of_Header***,,
X_Value,Voltage,Comment
0.000000,0.076421
0.000500,0.071591
0.001000,0.057422
0.001500,0.045185
0.002000,0.030050
0.002500,0.018135
0.003000,0.002678
0.003500,0.012983
0.004000,0.031660
0.004500,0.050338
0.005000,0.061608
0.005500,0.071269
0.006000,0.076421
0.006500,0.079642
0.007000,0.083828
0.007500,0.085438
0.008000,0.082862
0.008500,0.077388
0.009000,0.066761
0.009500,0.053558
0.010000,0.038745
0.010500,0.023610
0.011000,0.011373
0.011500,0.004932
0.012000,0.021033
0.012500,0.035203
0.013000,0.053880
0.013500,0.064185
0.014000,0.072557
0.014500,0.077066
0.015000,0.081896
0.015500,0.085438
0.016000,0.082540
0.016500,0.081896
0.017000,0.075133
0.017500,0.061608
0.018000,0.049050
0.018500,0.033914
0.019000,0.021033
0.019500,0.005576
0.020000,0.008153
0.020500,0.025220
0.021000,0.042931
0.021500,0.057744
0.022000,0.067405
0.022500,0.074167
0.023000,0.079642
0.023500,0.083506
0.024000,0.083828
0.024500,0.084150
0.025000,0.079320
0.025500,0.071591
0.026000,0.060320
0.026500,0.045829
0.027000,0.028440
0.027500,0.014915
0.028000,0.003000
0.028500,0.014593
0.029000,0.033270
0.029500,0.048405
0.030000,0.060964
0.030500,0.071269
0.031000,0.078354
0.031500,0.082540
0.032000,0.086082
0.032500,0.085760
0.033000,0.083506
0.033500,0.077066
0.034000,0.066439
0.034500,0.053558
0.035000,0.036813
0.035500,0.025542
0.036000,0.011695
0.036500,-0.002152
0.037000,0.019101
0.037500,0.037457
0.038000,0.052592
0.038500,0.065795
0.039000,0.073201
0.039500,0.077710
0.040000,0.082862
0.040500,0.083828
0.041000,0.080286
0.041500,0.079964
0.042000,0.072879
0.042500,0.061608
0.043000,0.047761
0.043500,0.033270
0.044000,0.019423
0.044500,0.004932
0.045000,0.010407
0.045500,0.026830
0.046000,0.043253
0.046500,0.059354
0.047000,0.068371
0.047500,0.078032
0.048000,0.079964
0.048500,0.083828
0.049000,0.084472
0.049500,0.082218
0.050000,0.079320
0.050500,0.072235
0.051000,0.060642
0.051500,0.045829
0.052000,0.031338
0.052500,0.017813
0.053000,0.003644
0.053500,0.011051
0.054000,0.031338
0.054500,0.046473
0.055000,0.059998
0.055500,0.069337
0.056000,0.075133
0.056500,0.080608
0.057000,0.086726
0.057500,0.086726
0.058000,0.080608
0.058500,0.078354
0.059000,0.068371
0.059500,0.054846
0.060000,0.036491
0.060500,0.024576
0.061000,0.010085
0.061500,0.005898
0.062000,0.020389
0.062500,0.038101
0.063000,0.051948
0.063500,0.065473
0.064000,0.074489
0.064500,0.077710
0.065000,0.085116
0.065500,0.087370
0.066000,0.084794
0.066500,0.083184
0.067000,0.075133
0.067500,0.063863
0.068000,0.050660
0.068500,0.033592
0.069000,0.022322
0.069500,0.006542
0.070000,0.004610
0.070500,0.024576
0.071000,0.042931
0.071500,0.057422
0.072000,0.067083
0.072500,0.073845
0.073000,0.079320
0.073500,0.083828
0.074000,0.084472
0.074500,0.086082
0.075000,0.079964
0.075500,0.069981
0.076000,0.056134
0.076500,0.040677
0.077000,0.026508
0.077500,0.014271
0.078000,0.002356
0.078500,0.013627
0.079000,0.033592
0.079500,0.050982
0.080000,0.062574
0.080500,0.071591
0.081000,0.077066
0.081500,0.080286
0.082000,0.083184
0.082500,0.085760
0.083000,0.081252
0.083500,0.076421
0.084000,0.067405
0.084500,0.053880
0.085000,0.040033
0.085500,0.024898
0.086000,0.012983
0.086500,-0.003440
0.087000,0.019101
0.087500,0.036813
0.088000,0.052270
0.088500,0.063541
0.089000,0.072235
0.089500,0.078354
0.090000,0.081574
0.090500,0.085438
0.091000,0.083506
0.091500,0.080608
0.092000,0.070947
0.092500,0.062252
0.093000,0.045507
0.093500,0.033270
0.094000,0.018779
0.094500,0.006864
0.095000,0.008475
0.095500,0.025542
0.096000,0.043897
0.096500,0.058066
0.097000,0.067405
0.097500,0.076099
0.098000,0.080608
0.098500,0.085438
0.099000,0.087048
0.099500,0.083828
0.100000,0.078676
0.100500,0.072557
0.101000,0.059032
0.101500,0.043897
0.102000,0.029406
0.102500,0.015559
0.103000,0.003000
0.103500,0.011695
0.104000,0.031338
0.104500,0.049372
0.105000,0.058710
0.105500,0.069337
0.106000,0.076099
0.106500,0.079964
0.107000,0.085116
0.107500,0.085116
0.108000,0.082218
0.108500,0.075455
0.109000,0.067083
0.109500,0.052914
0.110000,0.034880
0.110500,0.021356
0.111000,0.010729
0.111500,0.003000
0.112000,0.019745
0.112500,0.037779
0.113000,0.055168
0.113500,0.064185
0.114000,0.071591
0.114500,0.077066
0.115000,0.082862
0.115500,0.085116
0.116000,0.083184
0.116500,0.080286
0.117000,0.074489
0.117500,0.063541
0.118000,0.049372
0.118500,0.035525
0.119000,0.022000
0.119500,0.008797
0.120000,0.007187
0.120500,0.024254
0.121000,0.041965
0.121500,0.056134
0.122000,0.066439
0.122500,0.075133
0.123000,0.078998
0.123500,0.084150
0.124000,0.087048
0.124500,0.085116
0.125000,0.078998
0.125500,0.071269
0.126000,0.059354
0.126500,0.043897
0.127000,0.029728
0.127500,0.016203
0.128000,0.002678
0.128500,0.013305
0.129000,0.031982
0.129500,0.049050
0.130000,0.061930
0.130500,0.071913
0.131000,0.077066
0.131500,0.081574
0.132000,0.084794
0.132500,0.086082
0.133000,0.083506
0.133500,0.076743
0.134000,0.066117
0.134500,0.052914
0.135000,0.038101
0.135500,0.024576
0.136000,0.011373
0.136500,-0.002152
0.137000,0.018457
0.137500,0.037135
0.138000,0.052914
0.138500,0.062897
0.139000,0.071913
0.139500,0.075133
0.140000,0.081574
0.140500,0.084794
0.141000,0.082862
0.141500,0.081574
0.142000,0.073523
0.142500,0.062897
0.143000,0.048405
0.143500,0.033270
0.144000,0.021033
0.144500,0.006542
0.145000,0.009119
0.145500,0.024576
0.146000,0.043253
0.146500,0.056134
0.147000,0.066117
0.147500,0.076099
0.148000,0.079320
0.148500,0.083828
0.149000,0.087370
0.149500,0.085116
0.150000,0.079642
0.150500,0.069981
0.151000,0.059032
0.151500,0.046151
0.152000,0.031660
0.152500,0.016525
0.153000,0.003322
0.153500,0.011695
0.154000,0.029084
0.154500,0.048727
0.155000,0.061286
0.155500,0.070625
0.156000,0.075455
0.156500,0.081252
0.157000,0.085116
0.157500,0.084794
0.158000,0.081574
0.158500,0.076743
0.159000,0.066117
0.159500,0.053880
0.160000,0.037779
0.160500,0.024898
0.161000,0.010085
0.161500,0.004288
0.162000,0.019423
0.162500,0.037135
0.163000,0.053236
0.163500,0.062574
0.164000,0.072879
0.164500,0.077066
0.165000,0.084794
0.165500,0.086726
0.166000,0.085438
0.166500,0.078676
0.167000,0.074167
0.167500,0.063219
0.168000,0.049694
0.168500,0.033914
0.169000,0.021678
0.169500,0.006864
0.170000,0.005898
0.170500,0.022644
0.171000,0.040677
0.171500,0.056134
0.172000,0.066761
0.172500,0.073523
0.173000,0.078676
0.173500,0.082862
0.174000,0.084472
0.174500,0.082218
0.175000,0.077710
0.175500,0.071591
0.176000,0.059354
0.176500,0.042931
0.177000,0.028118
0.177500,0.015881
0.178000,0.002356
0.178500,0.013627
0.179000,0.032626
0.179500,0.050338
0.180000,0.061930
0.180500,0.071269
0.181000,0.077710
0.181500,0.080930
0.182000,0.084472
0.182500,0.084794
0.183000,0.081896
0.183500,0.077710
0.184000,0.068371
0.184500,0.056456
0.185000,0.041965
0.185500,0.027474
0.186000,0.012017
0.186500,-0.001186
0.187000,0.017169
0.187500,0.033914
0.188000,0.051304
0.188500,0.062574
0.189000,0.071913
0.189500,0.077710
0.190000,0.082218
0.190500,0.084794
0.191000,0.084150
0.191500,0.080286
0.192000,0.074167
0.192500,0.063541
0.193000,0.046473
0.193500,0.033592
0.194000,0.021033
0.194500,0.006542
0.195000,0.009441
0.195500,0.027152
0.196000,0.042931
0.196500,0.056134
0.197000,0.067083
0.197500,0.075133
0.198000,0.078354
0.198500,0.083184
0.199000,0.085438
0.199500,0.083506
0.200000,0.079320
0.200500,0.072879
0.201000,0.059032
0.201500,0.043253
0.202000,0.030372
0.202500,0.016525
0.203000,0.003644
0.203500,0.011695
0.204000,0.030694
0.204500,0.047439
0.205000,0.060642
0.205500,0.069015
0.206000,0.076099
0.206500,0.078998
0.207000,0.084472
0.207500,0.084794
0.208000,0.082218
0.208500,0.077388
0.209000,0.068049
0.209500,0.054524
0.210000,0.038745
0.210500,0.023932
0.211000,0.012339
0.211500,0.003966
0.212000,0.018457
0.212500,0.038423
0.213000,0.053558
0.213500,0.062252
0.214000,0.074811
0.214500,0.079642
0.215000,0.083828
0.215500,0.086726
0.216000,0.083828
0.216500,0.081252
0.217000,0.074811
0.217500,0.066117
0.218000,0.050660
0.218500,0.034558
0.219000,0.019101
0.219500,0.007187
0.220000,0.006542
0.220500,0.024898
0.221000,0.040999
0.221500,0.056778
0.222000,0.066117
0.222500,0.073845
0.223000,0.077710
0.223500,0.083828
0.224000,0.084794
0.224500,0.083506
0.225000,0.080608
0.225500,0.071269
0.226000,0.059676
0.226500,0.046151
0.227000,0.031016
0.227500,0.016203
0.228000,0.003000
0.228500,0.013305
0.229000,0.032304
0.229500,0.049694
0.230000,0.062252
0.230500,0.070625
0.231000,0.077066
0.231500,0.080608
0.232000,0.084472
0.232500,0.086726
0.233000,0.084150
0.233500,0.077710
0.234000,0.068371
0.234500,0.054524
0.235000,0.038745
0.235500,0.025220
0.236000,0.011373
0.236500,-0.001508
0.237000,0.017813
0.237500,0.036813
0.238000,0.052592
0.238500,0.062574
0.239000,0.071913
0.239500,0.078354
0.240000,0.084794
0.240500,0.086404
0.241000,0.085116
0.241500,0.082862
0.242000,0.075455
0.242500,0.067083
0.243000,0.051626
0.243500,0.035525
0.244000,0.022000
0.244500,0.008797
0.245000,0.007831
0.245500,0.026830
0.246000,0.044541
0.246500,0.057100
0.247000,0.067405
0.247500,0.074489
0.248000,0.078354
0.248500,0.082218
0.249000,0.084150
0.249500,0.082218
0.250000,0.080930
0.250500,0.071913
0.251000,0.059354
0.251500,0.043575
0.252000,0.031016
0.252500,0.015237
0.253000,0.003000
0.253500,0.011373
0.254000,0.030694
0.254500,0.048727
0.255000,0.058388
0.255500,0.069015
0.256000,0.073845
0.256500,0.079642
0.257000,0.086082
0.257500,0.084150
0.258000,0.082218
0.258500,0.077710
0.259000,0.066761
0.259500,0.054202
0.260000,0.038745
0.260500,0.025220
0.261000,0.010085
0.261500,0.004610
0.262000,0.018779
0.262500,0.035847
0.263000,0.053558
0.263500,0.065473
0.264000,0.073523
0.264500,0.078676
0.265000,0.082862
0.265500,0.086404
0.266000,0.084794
0.266500,0.082218
0.267000,0.074811
0.267500,0.062252
0.268000,0.050338
0.268500,0.035203
0.269000,0.020067
0.269500,0.007187
0.270000,0.004610
0.270500,0.022000
0.271000,0.040999
0.271500,0.057100
0.272000,0.064507
0.272500,0.074167
0.273000,0.078354
0.273500,0.082862
0.274000,0.086082
0.274500,0.083828
0.275000,0.078354
0.275500,0.071269
0.276000,0.059032
0.276500,0.045185
0.277000,0.028762
0.277500,0.015559
0.278000,0.001068
0.278500,0.013305
0.279000,0.032304
0.279500,0.049050
0.280000,0.065473
0.280500,0.070625
0.281000,0.078354
0.281500,0.082862
0.282000,0.083506
0.282500,0.085116
0.283000,0.083828
0.283500,0.080286
0.284000,0.068693
0.284500,0.054846
0.285000,0.040355
0.285500,0.025864
0.286000,0.014271
0.286500,-0.000220
0.287000,0.017169
0.287500,0.036169
0.288000,0.053236
0.288500,0.064185
0.289000,0.073523
0.289500,0.078354
0.290000,0.083184
0.290500,0.083828
0.291000,0.084472
0.291500,0.081252
0.292000,0.078032
0.292500,0.062574
0.293000,0.049372
0.293500,0.034236
0.294000,0.020067
0.294500,0.009119
0.295000,0.009441
0.295500,0.027152
0.296000,0.043253
0.296500,0.058388
0.297000,0.067727
0.297500,0.075455
0.298000,0.079320
0.298500,0.086726
0.299000,0.084794
0.299500,0.084150
0.300000,0.079642
0.300500,0.072235
0.301000,0.061286
0.301500,0.046473
0.302000,0.032626
0.302500,0.018457
0.303000,0.002678
0.303500,0.011051
0.304000,0.029728
0.304500,0.048405
0.305000,0.060642
0.305500,0.069015
0.306000,0.076099
0.306500,0.080286
0.307000,0.085116
0.307500,0.085116
0.308000,0.083184
0.308500,0.076743
0.309000,0.068693
0.309500,0.054202
0.310000,0.038745
0.310500,0.024576
0.311000,0.010407
0.311500,0.004288
0.312000,0.019101
0.312500,0.038423
0.313000,0.053880
0.313500,0.067083
0.314000,0.073845
0.314500,0.081574
0.315000,0.085760
0.315500,0.086404
0.316000,0.086404
0.316500,0.082218
0.317000,0.075133
0.317500,0.064829
0.318000,0.049694
0.318500,0.034880
0.319000,0.022966
0.319500,0.008797
0.320000,0.003966
0.320500,0.023288
0.321000,0.043253
0.321500,0.055490
0.322000,0.066117
0.322500,0.073523
0.323000,0.079320
0.323500,0.083184
0.324000,0.084472
0.324500,0.082540
0.325000,0.078032
0.325500,0.071591
0.326000,0.058388
0.326500,0.043897
0.327000,0.030694
0.327500,0.015559
0.328000,0.003322
0.328500,0.013627
0.329000,0.032948
0.329500,0.049694
0.330000,0.061286
0.330500,0.071269
0.331000,0.076743
0.331500,0.081574
0.332000,0.085438
0.332500,0.086726
0.333000,0.083828
0.333500,0.080608
0.334000,0.067727
0.334500,0.056456
0.335000,0.040999
0.335500,0.028440
0.336000,0.012983
0.336500,-0.002796
0.337000,0.016847
0.337500,0.036813
0.338000,0.052270
0.338500,0.062574
0.339000,0.072235
0.339500,0.077066
0.340000,0.083506
0.340500,0.084150
0.341000,0.085438
0.341500,0.079964
0.342000,0.074811
0.342500,0.062574
0.343000,0.048727
0.343500,0.034558
0.344000,0.022000
0.344500,0.007187
0.345000,0.007831
0.345500,0.027152
0.346000,0.043575
0.346500,0.058066
0.347000,0.067405
0.347500,0.075133
0.348000,0.078676
0.348500,0.084472
0.349000,0.086726
0.349500,0.084472
0.350000,0.079320
0.350500,0.073201
0.351000,0.061286
0.351500,0.045829
0.352000,0.033270
0.352500,0.016847
0.353000,0.004288
0.353500,0.011373
0.354000,0.029406
0.354500,0.046151
0.355000,0.058388
0.355500,0.068693
0.356000,0.075777
0.356500,0.080608
0.357000,0.085116
0.357500,0.086726
0.358000,0.084472
0.358500,0.077710
0.359000,0.068693
0.359500,0.054202
0.360000,0.039067
0.360500,0.023610
0.361000,0.011051
0.361500,0.004288
0.362000,0.017169
0.362500,0.034558
0.363000,0.051948
0.363500,0.064507
0.364000,0.073845
0.364500,0.080930
0.365000,0.087370
0.365500,0.086726
0.366000,0.087048
0.366500,0.081574
0.367000,0.075133
0.367500,0.065473
0.368000,0.050338
0.368500,0.036491
0.369000,0.022644
0.369500,0.008475
0.370000,0.005898
0.370500,0.022644
0.371000,0.041321
0.371500,0.054524
0.372000,0.066761
0.372500,0.073845
0.373000,0.078676
0.373500,0.084150
0.374000,0.085438
0.374500,0.083184
0.375000,0.079642
0.375500,0.072235
0.376000,0.060642
0.376500,0.045185
0.377000,0.027796
0.377500,0.014271
0.378000,0.003644
0.378500,0.012017
0.379000,0.031338
0.379500,0.049372
0.380000,0.060964
0.380500,0.069981
0.381000,0.078032
0.381500,0.080608
0.382000,0.086404
0.382500,0.085116
0.383000,0.083506
0.383500,0.078676
0.384000,0.069337
0.384500,0.054846
0.385000,0.041321
0.385500,0.026508
0.386000,0.014593
0.386500,-0.001186
0.387000,0.018135
0.387500,0.035525
0.388000,0.053236
0.388500,0.062897
0.389000,0.072235
0.389500,0.077066
0.390000,0.082862
0.390500,0.084794
0.391000,0.085116
0.391500,0.080930
0.392000,0.075777
0.392500,0.067405
0.393000,0.050016
0.393500,0.034558
0.394000,0.025542
0.394500,0.007509
0.395000,0.006542
0.395500,0.023288
0.396000,0.040999
0.396500,0.056456
0.397000,0.067083
0.397500,0.074811
0.398000,0.078676
0.398500,0.084794
0.399000,0.087048
0.399500,0.084472
0.400000,0.079964
0.400500,0.073523
0.401000,0.059354
0.401500,0.046795
0.402000,0.028762
0.402500,0.015559
0.403000,0.003000
0.403500,0.011695
0.404000,0.030050
0.404500,0.048083
0.405000,0.059032
0.405500,0.070625
0.406000,0.076099
0.406500,0.080286
0.407000,0.085438
0.407500,0.085116
0.408000,0.083506
0.408500,0.077710
0.409000,0.067727
0.409500,0.054846
0.410000,0.039067
0.410500,0.025220
0.411000,0.011695
0.411500,0.004288
0.412000,0.020067
0.412500,0.036813
0.413000,0.052270
0.413500,0.062252
0.414000,0.071913
0.414500,0.078676
0.415000,0.087370
0.415500,0.088014
0.416000,0.086082
0.416500,0.081574
0.417000,0.075133
0.417500,0.065795
0.418000,0.049694
0.418500,0.035525
0.419000,0.023288
0.419500,0.007187
0.420000,0.004610
0.420500,0.022644
0.421000,0.040355
0.421500,0.057100
0.422000,0.066761
0.422500,0.072557
0.423000,0.078998
0.423500,0.084794
0.424000,0.085438
0.424500,0.084150
0.425000,0.079964
0.425500,0.071591
0.426000,0.060320
0.426500,0.044219
0.427000,0.028440
0.427500,0.016525
0.428000,0.002034
0.428500,0.011373
0.429000,0.031016
0.429500,0.049372
0.430000,0.061930
0.430500,0.068693
0.431000,0.080286
0.431500,0.080930
0.432000,0.085116
0.432500,0.085116
0.433000,0.080286
0.433500,0.078032
0.434000,0.070303
0.434500,0.053880
0.435000,0.038745
0.435500,0.025542
0.436000,0.013627
0.436500,-0.000864
0.437000,0.015237
0.437500,0.036169
0.438000,0.050660
0.438500,0.060964
0.439000,0.072235
0.439500,0.076743
0.440000,0.082862
0.440500,0.084150
0.441000,0.084794
0.441500,0.080286
0.442000,0.075133
0.442500,0.063541
0.443000,0.052270
0.443500,0.033914
0.444000,0.021033
0.444500,0.007831
0.445000,0.008153
0.445500,0.024576
0.446000,0.042609
0.446500,0.056456
0.447000,0.067727
0.447500,0.075133
0.448000,0.078998
0.448500,0.083828
0.449000,0.084794
0.449500,0.084150
0.450000,0.079964
0.450500,0.077066
0.451000,0.060964
0.451500,0.045507
0.452000,0.031660
0.452500,0.018135
0.453000,0.004610
0.453500,0.011373
0.454000,0.028440
0.454500,0.046151
0.455000,0.057100
0.455500,0.069337
0.456000,0.074489
0.456500,0.079642
0.457000,0.086726
0.457500,0.086404
0.458000,0.083184
0.458500,0.077066
0.459000,0.069659
0.459500,0.056134
0.460000,0.039389
0.460500,0.025542
0.461000,0.009119
0.461500,0.001712
0.462000,0.018135
0.462500,0.038101
0.463000,0.055168
0.463500,0.065795
0.464000,0.073845
0.464500,0.079964
0.465000,0.084794
0.465500,0.086726
0.466000,0.085438
0.466500,0.082862
0.467000,0.074489
0.467500,0.064185
0.468000,0.050660
0.468500,0.035847
0.469000,0.022966
0.469500,0.008797
0.470000,0.005254
0.470500,0.022644
0.471000,0.040355
0.471500,0.057422
0.472000,0.066439
0.472500,0.076099
0.473000,0.078676
0.473500,0.087370
0.474000,0.084794
0.474500,0.084794
0.475000,0.077710
0.475500,0.075455
0.476000,0.059998
0.476500,0.046795
0.477000,0.031660
0.477500,0.017491
0.478000,0.004610
0.478500,0.013305
0.479000,0.029084
0.479500,0.046795
0.480000,0.059354
0.480500,0.069015
0.481000,0.075133
0.481500,0.078998
0.482000,0.084794
0.482500,0.086082
0.483000,0.082540
0.483500,0.078354
0.484000,0.069981
0.484500,0.056134
0.485000,0.040677
0.485500,0.026830
0.486000,0.013949
0.486500,-0.003118
0.487000,0.016525
0.487500,0.036169
0.488000,0.049694
0.488500,0.064185
0.489000,0.073523
0.489500,0.078354
0.490000,0.083828
0.490500,0.086404
0.491000,0.086082
0.491500,0.079642
0.492000,0.075455
0.492500,0.064829
0.493000,0.049050
0.493500,0.034558
0.494000,0.019423
0.494500,0.007831
0.495000,0.007509
0.495500,0.023932
0.496000,0.040999
0.496500,0.059354
0.497000,0.066117
0.497500,0.075133
0.498000,0.078032
0.498500,0.083828
0.499000,0.087692
0.499500,0.085116
0.500000,0.080286
0.500500,0.074811
0.501000,0.060320
0.501500,0.046795
0.502000,0.031660
0.502500,0.017813
0.503000,0.003322
0.503500,0.011373
0.504000,0.029084
0.504500,0.046473
0.505000,0.060642
0.505500,0.068049
0.506000,0.078676
0.506500,0.079964
0.507000,0.084794
0.507500,0.085760
0.508000,0.083184
0.508500,0.078354
0.509000,0.069337
0.509500,0.056134
0.510000,0.040999
0.510500,0.025542
0.511000,0.011695
0.511500,0.003966
0.512000,0.017813
0.512500,0.036169
0.513000,0.052270
0.513500,0.063541
0.514000,0.074167
0.514500,0.075455
0.515000,0.081574
0.515500,0.085438
0.516000,0.085760
0.516500,0.082540
0.517000,0.077066
0.517500,0.066117
0.518000,0.049694
0.518500,0.034880
0.519000,0.023932
0.519500,0.010085
0.520000,0.004932
0.520500,0.023288
0.521000,0.041321
0.521500,0.058388
0.522000,0.066117
0.522500,0.074489
0.523000,0.078998
0.523500,0.083828
0.524000,0.084150
0.524500,0.083828
0.525000,0.078998
0.525500,0.073845
0.526000,0.061608
0.526500,0.045185
0.527000,0.030694
0.527500,0.018135
0.528000,0.004610
0.528500,0.014271
0.529000,0.031338
0.529500,0.047439
0.530000,0.058066
0.530500,0.068693
0.531000,0.076421
0.531500,0.079642
0.532000,0.082862
0.532500,0.085438
0.533000,0.081252
0.533500,0.080286
0.534000,0.068693
0.534500,0.056778
0.535000,0.041321
0.535500,0.027474
0.536000,0.013627
0.536500,-0.000542
0.537000,0.016525
0.537500,0.038423
0.538000,0.050660
0.538500,0.061608
0.539000,0.071269
0.539500,0.076099
0.540000,0.081252
0.540500,0.084794
0.541000,0.085438
0.541500,0.081574
0.542000,0.076099
0.542500,0.063219
0.543000,0.050016
0.543500,0.034880
0.544000,0.020067
0.544500,0.007187
0.545000,0.007831
0.545500,0.024254
0.546000,0.041321
0.546500,0.055812
0.547000,0.066439
0.547500,0.075455
0.548000,0.080608
0.548500,0.083828
0.549000,0.087692
0.549500,0.085438
0.550000,0.080286
0.550500,0.072879
0.551000,0.059676
0.551500,0.044541
0.552000,0.030694
0.552500,0.017169
0.553000,0.004932
0.553500,0.010407
0.554000,0.029084
0.554500,0.046151
0.555000,0.060642
0.555500,0.071269
0.556000,0.078354
0.556500,0.079964
0.557000,0.084794
0.557500,0.084150
0.558000,0.078354
0.558500,0.075777
0.559000,0.069981
0.559500,0.057100
0.560000,0.042287
0.560500,0.027152
0.561000,0.011051
0.561500,0.004932
0.562000,0.020711
0.562500,0.040355
0.563000,0.055812
0.563500,0.067083
0.564000,0.073201
0.564500,0.079320
0.565000,0.081252
0.565500,0.084794
0.566000,0.086082
0.566500,0.081896
0.567000,0.075133
0.567500,0.067405
0.568000,0.050660
0.568500,0.033914
0.569000,0.022644
0.569500,0.007187
0.570000,0.000424
0.570500,0.021678
0.571000,0.038423
0.571500,0.053236
0.572000,0.064829
0.572500,0.072557
0.573000,0.079320
0.573500,0.084472
0.574000,0.086082
0.574500,0.082862
0.575000,0.082540
0.575500,0.074811
0.576000,0.060642
0.576500,0.043575
0.577000,0.031982
0.577500,0.015881
0.578000,0.002678
0.578500,0.012661
0.579000,0.030372
0.579500,0.047761
0.580000,0.061608
0.580500,0.070303
0.581000,0.076099
0.581500,0.078998
0.582000,0.085116
0.582500,0.087370
0.583000,0.084150
0.583500,0.080608
0.584000,0.071269
0.584500,0.057744
0.585000,0.042931
0.585500,0.029084
0.586000,0.015237
0.586500,-0.001186
0.587000,0.014915
0.587500,0.034880
0.588000,0.049050
0.588500,0.063219
0.589000,0.070303
0.589500,0.077066
0.590000,0.082218
0.590500,0.084472
0.591000,0.082540
0.591500,0.081574
0.592000,0.073523
0.592500,0.064829
0.593000,0.050660
0.593500,0.034880
0.594000,0.020711
0.594500,0.006220
0.595000,0.009119
0.595500,0.024254
0.596000,0.043253
0.596500,0.056778
0.597000,0.066439
0.597500,0.074489
0.598000,0.078676
0.598500,0.083828
0.599000,0.087370
0.599500,0.084794
0.600000,0.082862
0.600500,0.074489
0.601000,0.062574
0.601500,0.048083
0.602000,0.032304
0.602500,0.019423
0.603000,0.005898
0.603500,0.008475
0.604000,0.029406
0.604500,0.045507
0.605000,0.058388
0.605500,0.069337
0.606000,0.077388
0.606500,0.081574
0.607000,0.087370
0.607500,0.088658
0.608000,0.085760
0.608500,0.079642
0.609000,0.069981
0.609500,0.055168
0.610000,0.038745
0.610500,0.022000
0.611000,0.011051
0.611500,0.003966
0.612000,0.017491
0.612500,0.036491
0.613000,0.051626
0.613500,0.065473
0.614000,0.072879
0.614500,0.078998
0.615000,0.081574
0.615500,0.085438
0.616000,0.086404
0.616500,0.082862
0.617000,0.078998
0.617500,0.066117
0.618000,0.052270
0.618500,0.038101
0.619000,0.022966
0.619500,0.009763
0.620000,0.000746
0.620500,0.022000
0.621000,0.040355
0.621500,0.056134
0.622000,0.068049
0.622500,0.075133
0.623000,0.079642
0.623500,0.082218
0.624000,0.086082
0.624500,0.083828
0.625000,0.080608
0.625500,0.072235
0.626000,0.059676
0.626500,0.045507
0.627000,0.031016
0.627500,0.018135
0.628000,0.003966
0.628500,0.011373
0.629000,0.029728
0.629500,0.045185
0.630000,0.059354
0.630500,0.069981
0.631000,0.076099
0.631500,0.081574
0.632000,0.085438
0.632500,0.086082
0.633000,0.082862
0.633500,0.078676
0.634000,0.068371
0.634500,0.056456
0.635000,0.040677
0.635500,0.024898
0.636000,0.014271
0.636500,0.000746
0.637000,0.014915
0.637500,0.038101
0.638000,0.050982
0.638500,0.064829
0.639000,0.072557
0.639500,0.077388
0.640000,0.083506
0.640500,0.085116
0.641000,0.084472
0.641500,0.081896
0.642000,0.078032
0.642500,0.065151
0.643000,0.050338
0.643500,0.035525
0.644000,0.020711
0.644500,0.007187
0.645000,0.007509
0.645500,0.022644
0.646000,0.042609
0.646500,0.057422
0.647000,0.068049
0.647500,0.075777
0.648000,0.078676
0.648500,0.082862
0.649000,0.087692
0.649500,0.085116
0.650000,0.080286
0.650500,0.072235
0.651000,0.059032
0.651500,0.043575
0.652000,0.031338
0.652500,0.015237
0.653000,0.003966
0.653500,0.011051
0.654000,0.029084
0.654500,0.047761
0.655000,0.059676
0.655500,0.068693
0.656000,0.077388
0.656500,0.080608
0.657000,0.082218
0.657500,0.085116
0.658000,0.082540
0.658500,0.079320
0.659000,0.072235
0.659500,0.055490
0.660000,0.041643
0.660500,0.026830
0.661000,0.012983
0.661500,0.004610
0.662000,0.017169
0.662500,0.035847
0.663000,0.052270
0.663500,0.064829
0.664000,0.072879
0.664500,0.079320
0.665000,0.084150
0.665500,0.086404
0.666000,0.086404
0.666500,0.081252
0.667000,0.074811
0.667500,0.065795
0.668000,0.051626
0.668500,0.037457
0.669000,0.021678
0.669500,0.011373
0.670000,0.000424
0.670500,0.022644
0.671000,0.040033
0.671500,0.056134
0.672000,0.065795
0.672500,0.074811
0.673000,0.078354
0.673500,0.083506
0.674000,0.085760
0.674500,0.083828
0.675000,0.080930
0.675500,0.074489
0.676000,0.062252
0.676500,0.046151
0.677000,0.031338
0.677500,0.018779
0.678000,0.003966
0.678500,0.011051
0.679000,0.031338
0.679500,0.050016
0.680000,0.058388
0.680500,0.069659
0.681000,0.076099
0.681500,0.080930
0.682000,0.086082
0.682500,0.088336
0.683000,0.084150
0.683500,0.078676
0.684000,0.069981
0.684500,0.058388
0.685000,0.042287
0.685500,0.028440
0.686000,0.013949
0.686500,-0.000220
0.687000,0.014915
0.687500,0.035525
0.688000,0.051626
0.688500,0.063863
0.689000,0.071591
0.689500,0.077388
0.690000,0.081574
0.690500,0.084150
0.691000,0.085438
0.691500,0.081252
0.692000,0.073201
0.692500,0.064185
0.693000,0.048727
0.693500,0.033270
0.694000,0.021356
0.694500,0.007831
0.695000,0.007831
0.695500,0.022000
0.696000,0.041321
0.696500,0.056456
0.697000,0.069015
0.697500,0.076421
0.698000,0.080608
0.698500,0.084472
0.699000,0.086082
0.699500,0.085760
0.700000,0.079964
0.700500,0.073201
0.701000,0.061930
0.701500,0.045829
0.702000,0.031338
0.702500,0.018457
0.703000,0.005254
0.703500,0.010407
0.704000,0.027474
0.704500,0.045185
0.705000,0.058066
0.705500,0.069337
0.706000,0.076099
0.706500,0.079320
0.707000,0.083506
0.707500,0.083506
0.708000,0.082540
0.708500,0.077388
0.709000,0.070303
0.709500,0.056778
0.710000,0.041321
0.710500,0.026508
0.711000,0.013305
0.711500,0.002356
0.712000,0.017491
0.712500,0.035203
0.713000,0.051626
0.713500,0.062574
0.714000,0.072235
0.714500,0.080930
0.715000,0.083184
0.715500,0.086082
0.716000,0.086404
0.716500,0.084472
0.717000,0.078676
0.717500,0.069659
0.718000,0.054524
0.718500,0.038101
0.719000,0.024254
0.719500,0.010729
0.720000,-0.002474
0.720500,0.020067
0.721000,0.040033
0.721500,0.054524
0.722000,0.061930
0.722500,0.072879
0.723000,0.079320
0.723500,0.081896
0.724000,0.085760
0.724500,0.084472
0.725000,0.080608
0.725500,0.073523
0.726000,0.060964
0.726500,0.044219
0.727000,0.033592
0.727500,0.016203
0.728000,0.004288
0.728500,0.009763
0.729000,0.028762
0.729500,0.046151
0.730000,0.059676
0.730500,0.069659
0.731000,0.075777
0.731500,0.079320
0.732000,0.085116
0.732500,0.085116
0.733000,0.082218
0.733500,0.078676
0.734000,0.069659
0.734500,0.055490
0.735000,0.040999
0.735500,0.027796
0.736000,0.014593
0.736500,0.000746
0.737000,0.013949
0.737500,0.033592
0.738000,0.048727
0.738500,0.062252
0.739000,0.071913
0.739500,0.078032
0.740000,0.079642
0.740500,0.086726
0.741000,0.084150
0.741500,0.081574
0.742000,0.075777
0.742500,0.065795
0.743000,0.051304
0.743500,0.036169
0.744000,0.023288
0.744500,0.009441
0.745000,0.006542
0.745500,0.019745
0.746000,0.041965
0.746500,0.055812
0.747000,0.066761
0.747500,0.074489
0.748000,0.078998
0.748500,0.083828
0.749000,0.085760
0.749500,0.084472
0.750000,0.080608
0.750500,0.073523
0.751000,0.062252
0.751500,0.046473
0.752000,0.031338
0.752500,0.018457
0.753000,0.005254
0.753500,0.007509
0.754000,0.030694
0.754500,0.044863
0.755000,0.059354
0.755500,0.069015
0.756000,0.077388
0.756500,0.080286
0.757000,0.084472
0.757500,0.085438
0.758000,0.085116
0.758500,0.077066
0.759000,0.069337
0.759500,0.056134
0.760000,0.039711
0.760500,0.026508
0.761000,0.014271
0.761500,0.002678
0.762000,0.017813
0.762500,0.034236
0.763000,0.051304
0.763500,0.063219
0.764000,0.071913
0.764500,0.078354
0.765000,0.083506
0.765500,0.086404
0.766000,0.086404
0.766500,0.084150
0.767000,0.079642
0.767500,0.064829
0.768000,0.051304
0.768500,0.039067
0.769000,0.023610
0.769500,0.011373
0.770000,-0.003762
0.770500,0.019745
0.771000,0.042287
0.771500,0.054846
0.772000,0.067727
0.772500,0.074167
0.773000,0.078998
0.773500,0.084150
0.774000,0.086726
0.774500,0.084472
0.775000,0.079642
0.775500,0.072235
0.776000,0.059998
0.776500,0.046473
0.777000,0.031338
0.777500,0.016525
0.778000,0.004288
0.778500,0.011373
0.779000,0.029084
0.779500,0.045507
0.780000,0.059354
0.780500,0.069981
0.781000,0.076421
0.781500,0.080286
0.782000,0.085116
0.782500,0.086726
0.783000,0.083828
0.783500,0.078676
0.784000,0.069981
0.784500,0.058388
0.785000,0.043253
0.785500,0.028762
0.786000,0.015237
0.786500,0.001390
0.787000,0.014915
0.787500,0.033270
0.788000,0.052592
0.788500,0.060320
0.789000,0.069015
0.789500,0.074811
0.790000,0.079964
0.790500,0.084794
0.791000,0.084794
0.791500,0.083184
0.792000,0.073523
0.792500,0.065795
0.793000,0.051626
0.793500,0.035203
0.794000,0.022000
0.794500,0.008475
0.795000,0.005254
0.795500,0.022322
0.796000,0.041965
0.796500,0.058066
0.797000,0.067727
0.797500,0.075455
0.798000,0.078676
0.798500,0.084150
0.799000,0.086404
0.799500,0.083506
0.800000,0.081574
0.800500,0.074167
0.801000,0.061930
0.801500,0.047439
0.802000,0.033592
0.802500,0.019101
0.803000,0.005576
0.803500,0.008153
0.804000,0.029406
0.804500,0.044863
0.805000,0.057744
0.805500,0.068693
0.806000,0.074489
0.806500,0.080286
0.807000,0.084150
0.807500,0.082862
0.808000,0.083184
0.808500,0.075455
0.809000,0.069659
0.809500,0.054524
0.810000,0.040355
0.810500,0.024254
0.811000,0.012339
0.811500,0.003644
0.812000,0.016203
0.812500,0.035525
0.813000,0.052592
0.813500,0.062897
0.814000,0.072879
0.814500,0.078354
0.815000,0.082540
0.815500,0.086082
0.816000,0.085438
0.816500,0.082218
0.817000,0.076421
0.817500,0.066439
0.818000,0.055490
0.818500,0.036491
0.819000,0.024254
0.819500,0.009119
0.820000,0.004610
0.820500,0.021678
0.821000,0.040355
0.821500,0.054846
0.822000,0.062574
0.822500,0.072557
0.823000,0.078032
0.823500,0.079964
0.824000,0.085760
0.824500,0.082218
0.825000,0.080286
0.825500,0.072557
0.826000,0.060642
0.826500,0.045829
0.827000,0.031982
0.827500,0.018135
0.828000,0.004610
0.828500,0.010407
0.829000,0.025542
0.829500,0.045829
0.830000,0.058066
0.830500,0.069337
0.831000,0.075777
0.831500,0.079642
0.832000,0.084794
0.832500,0.086404
0.833000,0.081896
0.833500,0.078354
0.834000,0.071269
0.834500,0.058388
0.835000,0.046473
0.835500,0.027152
0.836000,0.013305
0.836500,0.000424
0.837000,0.013305
0.837500,0.033270
0.838000,0.049694
0.838500,0.060964
0.839000,0.070947
0.839500,0.078676
0.840000,0.080286
0.840500,0.085438
0.841000,0.084472
0.841500,0.081574
0.842000,0.075133
0.842500,0.066439
0.843000,0.049372
0.843500,0.037457
0.844000,0.022644
0.844500,0.008153
0.845000,0.006542
0.845500,0.022000
0.846000,0.039389
0.846500,0.055812
0.847000,0.065473
0.847500,0.072557
0.848000,0.078998
0.848500,0.082862
0.849000,0.084472
0.849500,0.085116
0.850000,0.080286
0.850500,0.074167
0.851000,0.063863
0.851500,0.048405
0.852000,0.033592
0.852500,0.019423
0.853000,0.005576
0.853500,0.009763
0.854000,0.028762
0.854500,0.044219
0.855000,0.057100
0.855500,0.067727
0.856000,0.074167
0.856500,0.080286
0.857000,0.082540
0.857500,0.086404
0.858000,0.079964
0.858500,0.077388
0.859000,0.070625
0.859500,0.057422
0.860000,0.041321
0.860500,0.027796
0.861000,0.011373
0.861500,0.003644
0.862000,0.016525
0.862500,0.036813
0.863000,0.050660
0.863500,0.063863
0.864000,0.075455
0.864500,0.076421
0.865000,0.082540
0.865500,0.085438
0.866000,0.086404
0.866500,0.080286
0.867000,0.074811
0.867500,0.065795
0.868000,0.051948
0.868500,0.038101
0.869000,0.025220
0.869500,0.011695
0.870000,-0.002796
0.870500,0.021356
0.871000,0.038101
0.871500,0.054846
0.872000,0.065473
0.872500,0.071913
0.873000,0.078998
0.873500,0.081574
0.874000,0.084150
0.874500,0.085116
0.875000,0.080608
0.875500,0.073523
0.876000,0.060642
0.876500,0.047117
0.877000,0.030694
0.877500,0.018135
0.878000,0.003966
0.878500,0.010407
0.879000,0.028762
0.879500,0.046151
0.880000,0.055812
0.880500,0.068371
0.881000,0.076099
0.881500,0.079642
0.882000,0.085438
0.882500,0.086726
0.883000,0.084150
0.883500,0.078998
0.884000,0.069015
0.884500,0.056778
0.885000,0.042609
0.885500,0.028118
0.886000,0.015881
0.886500,0.002356
0.887000,0.013305
0.887500,0.031982
0.888000,0.047761
0.888500,0.060964
0.889000,0.071269
0.889500,0.077066
0.890000,0.081896
0.890500,0.086082
0.891000,0.084472
0.891500,0.081896
0.892000,0.075455
0.892500,0.064507
0.893000,0.052270
0.893500,0.036813
0.894000,0.022000
0.894500,0.008797
0.895000,0.006220
0.895500,0.021356
0.896000,0.038745
0.896500,0.055168
0.897000,0.065795
0.897500,0.077066
0.898000,0.078998
0.898500,0.084472
0.899000,0.084472
0.899500,0.085438
0.900000,0.078998
0.900500,0.074811
0.901000,0.061930
0.901500,0.048727
0.902000,0.033592
0.902500,0.020067
0.903000,0.005898
0.903500,0.007831
0.904000,0.025864
0.904500,0.044863
0.905000,0.058710
0.905500,0.067083
0.906000,0.073201
0.906500,0.080930
0.907000,0.084794
0.907500,0.084472
0.908000,0.083506
0.908500,0.079320
0.909000,0.068693
0.909500,0.055490
0.910000,0.040999
0.910500,0.027152
0.911000,0.013949
0.911500,0.003322
0.912000,0.016525
0.912500,0.034558
0.913000,0.050338
0.913500,0.062574
0.914000,0.072557
0.914500,0.076421
0.915000,0.082862
0.915500,0.085116
0.916000,0.085116
0.916500,0.079964
0.917000,0.076743
0.917500,0.064829
0.918000,0.052592
0.918500,0.038423
0.919000,0.024898
0.919500,0.010407
0.920000,-0.002796
0.920500,0.020711
0.921000,0.037779
0.921500,0.054202
0.922000,0.065151
0.922500,0.071591
0.923000,0.081574
0.923500,0.082218
0.924000,0.085438
0.924500,0.084794
0.925000,0.080930
0.925500,0.074167
0.926000,0.062574
0.926500,0.047117
0.927000,0.030050
0.927500,0.018457
0.928000,0.005254
0.928500,0.008475
0.929000,0.026830
0.929500,0.046795
0.930000,0.058710
0.930500,0.068693
0.931000,0.075777
0.931500,0.080608
0.932000,0.081252
0.932500,0.085438
0.933000,0.083506
0.933500,0.078354
0.934000,0.069981
0.934500,0.056134
0.935000,0.044541
0.935500,0.031338
0.936000,0.012983
0.936500,0.002034
0.937000,0.012339
0.937500,0.031982
0.938000,0.050338
0.938500,0.062574
0.939000,0.071269
0.939500,0.078354
0.940000,0.081252
0.940500,0.084794
0.941000,0.086082
0.941500,0.081574
0.942000,0.076099
0.942500,0.065795
0.943000,0.050660
0.943500,0.035847
0.944000,0.021033
0.944500,0.010085
0.945000,0.005254
0.945500,0.020711
0.946000,0.039711
0.946500,0.055490
0.947000,0.064829
0.947500,0.073201
0.948000,0.077710
0.948500,0.082540
0.949000,0.084794
0.949500,0.084794
0.950000,0.078998
0.950500,0.074167
0.951000,0.063219
0.951500,0.047439
0.952000,0.033270
0.952500,0.019101
0.953000,0.006864
0.953500,0.006542
0.954000,0.025220
0.954500,0.043575
0.955000,0.054846
0.955500,0.065473
0.956000,0.073845
0.956500,0.079642
0.957000,0.084472
0.957500,0.087692
0.958000,0.083828
0.958500,0.079642
0.959000,0.070303
0.959500,0.057744
0.960000,0.041321
0.960500,0.028440
0.961000,0.013949
0.961500,0.001390
0.962000,0.014593
0.962500,0.033914
0.963000,0.050982
0.963500,0.062897
0.964000,0.070947
0.964500,0.076099
0.965000,0.081896
0.965500,0.086404
0.966000,0.086404
0.966500,0.083828
0.967000,0.078032
0.967500,0.066761
0.968000,0.054202
0.968500,0.038423
0.969000,0.025220
0.969500,0.014271
0.970000,-0.002474
0.970500,0.019101
0.971000,0.037457
0.971500,0.052914
0.972000,0.063863
0.972500,0.072879
0.973000,0.077066
0.973500,0.082540
0.974000,0.085438
0.974500,0.082862
0.975000,0.079320
0.975500,0.072879
0.976000,0.061930
0.976500,0.047439
0.977000,0.033270
0.977500,0.019101
0.978000,0.006542
0.978500,0.010085
0.979000,0.027796
0.979500,0.045185
0.980000,0.059676
0.980500,0.069015
0.981000,0.077388
0.981500,0.082862
0.982000,0.085760
0.982500,0.085760
0.983000,0.080286
0.983500,0.079964
0.984000,0.072235
0.984500,0.059354
0.985000,0.044219
0.985500,0.029728
0.986000,0.015559
0.986500,0.002678
0.987000,0.013627
0.987500,0.032304
0.988000,0.048083
0.988500,0.059998
0.989000,0.070303
0.989500,0.075133
0.990000,0.079642
0.990500,0.083828
0.991000,0.084472
0.991500,0.080286
0.992000,0.077710
0.992500,0.066439
0.993000,0.053236
0.993500,0.038745
0.994000,0.022322
0.994500,0.009763
0.995000,0.006864
0.995500,0.021033
0.996000,0.039067
0.996500,0.053880
0.997000,0.066117
0.997500,0.070625
0.998000,0.077710
0.998500,0.082218
0.999000,0.084150
0.999500,0.083828
1.000000,0.080286
1.000500,0.073201
1.001000,0.062897
1.001500,0.050016
1.002000,0.033592
1.002500,0.020067
1.003000,0.008153
1.003500,0.007187
1.004000,0.023932
1.004500,0.043575
1.005000,0.058710
1.005500,0.068049
1.006000,0.074167
1.006500,0.079964
1.007000,0.084150
1.007500,0.085760
1.008000,0.081896
1.008500,0.078032
1.009000,0.070947
1.009500,0.058066
1.010000,0.040677
1.010500,0.029728
1.011000,0.013949
1.011500,0.006542
1.012000,0.015237
1.012500,0.034236
1.013000,0.048727
1.013500,0.061930
1.014000,0.069981
1.014500,0.075455
1.015000,0.079642
1.015500,0.083828
1.016000,0.084150
1.016500,0.081896
1.017000,0.075133
1.017500,0.066439
1.018000,0.049694
1.018500,0.037457
1.019000,0.022000
1.019500,0.008797
1.020000,-0.004406
1.020500,0.018779
1.021000,0.037779
1.021500,0.056778
1.022000,0.065151
1.022500,0.074167
1.023000,0.078032
1.023500,0.084794
1.024000,0.084472
1.024500,0.085116
1.025000,0.080286
1.025500,0.073845
1.026000,0.062252
1.026500,0.047117
1.027000,0.031660
1.027500,0.020389
1.028000,0.006542
1.028500,0.009763
1.029000,0.027474
1.029500,0.043253
1.030000,0.058388
1.030500,0.067727
1.031000,0.075133
1.031500,0.078998
1.032000,0.083506
1.032500,0.086726
1.033000,0.084150
1.033500,0.079320
1.034000,0.072235
1.034500,0.061930
1.035000,0.044863
1.035500,0.029406
1.036000,0.015559
1.036500,0.002356
1.037000,0.011051
1.037500,0.031660
1.038000,0.047439
1.038500,0.059998
1.039000,0.068693
1.039500,0.074811
1.040000,0.080608
1.040500,0.084794
1.041000,0.085438
1.041500,0.082218
1.042000,0.077710
1.042500,0.066439
1.043000,0.052914
1.043500,0.037779
1.044000,0.024576
1.044500,0.010407
1.045000,0.004288
1.045500,0.022000
1.046000,0.038101
1.046500,0.054524
1.047000,0.064829
1.047500,0.073201
1.048000,0.078676
1.048500,0.083184
1.049000,0.085438
1.049500,0.085116
1.050000,0.080608
1.050500,0.074489
1.051000,0.063219
1.051500,0.049372
1.052000,0.033592
1.052500,0.022644
1.053000,0.009763
1.053500,0.006220
1.054000,0.025220
1.054500,0.041965
1.055000,0.057422
1.055500,0.067727
1.056000,0.074489
1.056500,0.078676
1.057000,0.081896
1.057500,0.085760
1.058000,0.084472
1.058500,0.077710
1.059000,0.070625
1.059500,0.056456
1.060000,0.040355
1.060500,0.028440
1.061000,0.013949
1.061500,0.002678
1.062000,0.014915
1.062500,0.033914
1.063000,0.050660
1.063500,0.061286
1.064000,0.071913
1.064500,0.078032
1.065000,0.080608
1.065500,0.085760
1.066000,0.084794
1.066500,0.083506
1.067000,0.074489
1.067500,0.066439
1.068000,0.051304
1.068500,0.038745
1.069000,0.026186
1.069500,0.012983
1.070000,-0.002474
1.070500,0.018135
1.071000,0.036491
1.071500,0.052592
1.072000,0.063541
1.072500,0.072235
1.073000,0.077710
1.073500,0.081574
1.074000,0.085116
1.074500,0.082862
1.075000,0.079642
1.075500,0.073845
1.076000,0.062897
1.076500,0.046473
1.077000,0.031016
1.077500,0.018457
1.078000,0.006542
1.078500,0.011051
1.079000,0.028440
1.079500,0.045829
1.080000,0.059354
1.080500,0.068693
1.081000,0.074489
1.081500,0.077710
1.082000,0.083506
1.082500,0.085760
1.083000,0.084472
1.083500,0.081574
1.084000,0.072557
1.084500,0.058066
1.085000,0.045829
1.085500,0.029728
1.086000,0.016847
1.086500,0.002678
1.087000,0.010729
1.087500,0.030050
1.088000,0.047439
1.088500,0.059354
1.089000,0.070625
1.089500,0.076743
1.090000,0.079642
1.090500,0.084794
1.091000,0.084794
1.091500,0.083506
1.092000,0.076743
1.092500,0.066761
1.093000,0.052592
1.093500,0.037457
1.094000,0.025542
1.094500,0.009763
1.095000,0.005898
1.095500,0.020067
1.096000,0.038423
1.096500,0.054846
1.097000,0.065795
1.097500,0.073845
1.098000,0.078998
1.098500,0.082862
1.099000,0.085760
1.099500,0.085438
1.100000,0.081896
1.100500,0.073845
1.101000,0.061608
1.101500,0.047439
1.102000,0.033914
1.102500,0.020067
1.103000,0.010085
1.103500,0.005576
1.104000,0.023932
1.104500,0.043253
1.105000,0.056134
1.105500,0.066761
1.106000,0.074811
1.106500,0.079320
1.107000,0.083828
1.107500,0.085438
1.108000,0.081896
1.108500,0.078998
1.109000,0.071591
1.109500,0.058710
1.110000,0.043897
1.110500,0.027796
1.111000,0.015237
1.111500,0.003000
1.112000,0.013627
1.112500,0.032304
1.113000,0.048727
1.113500,0.060642
1.114000,0.069337
1.114500,0.076421
1.115000,0.080608
1.115500,0.084150
1.116000,0.087370
1.116500,0.083506
1.117000,0.075777
1.117500,0.067727
1.118000,0.052914
1.118500,0.039389
1.119000,0.025542
1.119500,0.011695
1.120000,-0.002474
1.120500,0.018135
1.121000,0.035203
1.121500,0.050660
1.122000,0.063863
1.122500,0.071913
1.123000,0.078032
1.123500,0.082218
1.124000,0.085760
1.124500,0.087048
1.125000,0.080286
1.125500,0.074167
1.126000,0.062897
1.126500,0.047761
1.127000,0.032626
1.127500,0.020067
1.128000,0.004932
1.128500,0.009441
1.129000,0.026830
1.129500,0.045185
1.130000,0.057422
1.130500,0.067727
1.131000,0.075133
1.131500,0.080286
1.132000,0.084472
1.132500,0.087048
1.133000,0.085760
1.133500,0.079964
1.134000,0.071913
1.134500,0.060642
1.135000,0.044219
1.135500,0.029406
1.136000,0.015881
1.136500,0.003322
1.137000,0.012017
1.137500,0.031016
1.138000,0.048405
1.138500,0.059032
1.139000,0.069981
1.139500,0.075455
1.140000,0.080930
1.140500,0.084794
1.141000,0.085116
1.141500,0.082862
1.142000,0.077066
1.142500,0.066761
1.143000,0.052592
1.143500,0.037457
1.144000,0.022644
1.144500,0.009763
1.145000,0.002034
1.145500,0.020389
1.146000,0.038101
1.146500,0.057100
1.147000,0.064507
1.147500,0.071913
1.148000,0.081252
1.148500,0.083184
1.149000,0.084794
1.149500,0.087692
1.150000,0.081896
1.150500,0.074811
1.151000,0.064185
1.151500,0.048083
1.152000,0.034236
1.152500,0.019745
1.153000,0.005898
1.153500,0.005576
1.154000,0.024254
1.154500,0.040677
1.155000,0.055812
1.155500,0.067083
1.156000,0.075455
1.156500,0.079320
1.157000,0.084794
1.157500,0.082862
1.158000,0.083828
1.158500,0.078032
1.159000,0.071591
1.159500,0.059032
1.160000,0.043253
1.160500,0.029728
1.161000,0.014271
1.161500,0.003322
1.162000,0.013949
1.162500,0.032948
1.163000,0.049050
1.163500,0.060320
1.164000,0.070625
1.164500,0.077066
1.165000,0.081252
1.165500,0.085438
1.166000,0.086404
1.166500,0.082540
1.167000,0.075777
1.167500,0.068693
1.168000,0.055812
1.168500,0.040677
1.169000,0.025220
1.169500,0.012983
1.170000,-0.004728
1.170500,0.017491
1.171000,0.035847
1.171500,0.050982
1.172000,0.061930
1.172500,0.071269
1.173000,0.076421
1.173500,0.080286
1.174000,0.085116
1.174500,0.086404
1.175000,0.079320
1.175500,0.075133
1.176000,0.062897
1.176500,0.049694
1.177000,0.033270
1.177500,0.018457
1.178000,0.006542
1.178500,0.008797
1.179000,0.026186
1.179500,0.044541
1.180000,0.058066
1.180500,0.065795
1.181000,0.077388
1.181500,0.080930
1.182000,0.084150
1.182500,0.089946
1.183000,0.082862
1.183500,0.080286
1.184000,0.072879
1.184500,0.059032
1.185000,0.042287
1.185500,0.028440
1.186000,0.017169
1.186500,0.003966
1.187000,0.012983
1.187500,0.030694
1.188000,0.048405
1.188500,0.061286
1.189000,0.070947
1.189500,0.078998
1.190000,0.080930
1.190500,0.085438
1.191000,0.085438
1.191500,0.081896
1.192000,0.077066
1.192500,0.067405
1.193000,0.051948
1.193500,0.038423
1.194000,0.025220
1.194500,0.008797
1.195000,0.005576
1.195500,0.019745
1.196000,0.037779
1.196500,0.052270
1.197000,0.065151
1.197500,0.075777
1.198000,0.078998
1.198500,0.082540
1.199000,0.085116
1.199500,0.083184
1.200000,0.081252
1.200500,0.075133
1.201000,0.064507
1.201500,0.048083
1.202000,0.033914
1.202500,0.018135
1.203000,0.007187
1.203500,0.005898
1.204000,0.023932
1.204500,0.043575
1.205000,0.056778
1.205500,0.067083
1.206000,0.074489
1.206500,0.078676
1.207000,0.084150
1.207500,0.085760
1.208000,0.084150
1.208500,0.078676
1.209000,0.071591
1.209500,0.059032
1.210000,0.043253
1.210500,0.028440
1.211000,0.014593
1.211500,0.003644
1.212000,0.013627
1.212500,0.031982
1.213000,0.049050
1.213500,0.061608
1.214000,0.070947
1.214500,0.076743
1.215000,0.079642
1.215500,0.086404
1.216000,0.085438
1.216500,0.080930
1.217000,0.078032
1.217500,0.065795
1.218000,0.054524
1.218500,0.038745
1.219000,0.025220
1.219500,0.012339
1.220000,-0.002796
1.220500,0.015881
1.221000,0.036491
1.221500,0.052270
1.222000,0.064829
1.222500,0.071591
1.223000,0.078032
1.223500,0.081896
1.224000,0.085438
1.224500,0.085116
1.225000,0.080608
1.225500,0.075133
1.226000,0.063863
1.226500,0.048727
1.227000,0.033270
1.227500,0.020711
1.228000,0.006220
1.228500,0.008797
1.229000,0.025864
1.229500,0.042609
1.230000,0.058388
1.230500,0.066117
1.231000,0.074489
1.231500,0.078998
1.232000,0.084794
1.232500,0.085438
1.233000,0.083828
1.233500,0.079642
1.234000,0.072235
1.234500,0.060320
1.235000,0.045185
1.235500,0.032304
1.236000,0.016525
1.236500,0.004932
1.237000,0.010407
1.237500,0.030050
1.238000,0.047117
1.238500,0.058388
1.239000,0.069659
1.239500,0.076743
1.240000,0.079642
1.240500,0.085760
1.241000,0.085438
1.241500,0.081896
1.242000,0.076421
1.242500,0.069337
1.243000,0.056134
1.243500,0.037779
1.244000,0.022644
1.244500,0.010729
1.245000,0.004288
1.245500,0.019101
1.246000,0.036491
1.246500,0.051948
1.247000,0.064829
1.247500,0.072879
1.248000,0.078676
1.248500,0.083184
1.249000,0.084794
1.249500,0.084794
1.250000,0.082218
1.250500,0.075455
1.251000,0.066117
1.251500,0.050660
1.252000,0.035847
1.252500,0.022644
1.253000,0.007509
1.253500,0.005898
1.254000,0.024254
1.254500,0.041965
1.255000,0.056456
1.255500,0.066439
1.256000,0.073845
1.256500,0.081574
1.257000,0.083828
1.257500,0.084150
1.258000,0.087048
1.258500,0.078032
1.259000,0.072557
1.259500,0.058066
1.260000,0.041321
1.260500,0.029084
1.261000,0.015881
1.261500,0.000102
1.262000,0.013305
1.262500,0.032626
1.263000,0.048727
1.263500,0.060642
1.264000,0.069015
1.264500,0.074489
1.265000,0.081574
1.265500,0.086082
1.266000,0.086082
1.266500,0.080930
1.267000,0.077710
1.267500,0.069015
1.268000,0.054524
1.268500,0.039389
1.269000,0.024898
1.269500,0.014593
1.270000,-0.002796
1.270500,0.013949
1.271000,0.035847
1.271500,0.052914
1.272000,0.064185
1.272500,0.070947
1.273000,0.077388
1.273500,0.083506
1.274000,0.085438
1.274500,0.084150
1.275000,0.081574
1.275500,0.073201
1.276000,0.063541
1.276500,0.050660
1.277000,0.032626
1.277500,0.020389
1.278000,0.007831
1.278500,0.008153
1.279000,0.027152
1.279500,0.043575
1.280000,0.056134
1.280500,0.067405
1.281000,0.073845
1.281500,0.077066
1.282000,0.083828
1.282500,0.087370
1.283000,0.083828
1.283500,0.079964
1.284000,0.072235
1.284500,0.061608
1.285000,0.043897
1.285500,0.029728
1.286000,0.015881
1.286500,0.002678
1.287000,0.009763
1.287500,0.031016
1.288000,0.047439
1.288500,0.059032
1.289000,0.069015
1.289500,0.077388
1.290000,0.078998
1.290500,0.085438
1.291000,0.085116
1.291500,0.079964
1.292000,0.078032
1.292500,0.065795
1.293000,0.052592
1.293500,0.039389
1.294000,0.024254
1.294500,0.012661
1.295000,0.005898
1.295500,0.019423
1.296000,0.037779
1.296500,0.057100
1.297000,0.064507
1.297500,0.072235
1.298000,0.076743
1.298500,0.082862
1.299000,0.088014
1.299500,0.086726
1.300000,0.081896
1.300500,0.075455
1.301000,0.065473
1.301500,0.049372
1.302000,0.035525
1.302500,0.021678
1.303000,0.007509
1.303500,0.004288
1.304000,0.020067
1.304500,0.038423
1.305000,0.055812
1.305500,0.065473
1.306000,0.074167
1.306500,0.078354
1.307000,0.082862
1.307500,0.085116
1.308000,0.083828
1.308500,0.080286
1.309000,0.072879
1.309500,0.059998
1.310000,0.041643
1.310500,0.031016
1.311000,0.013305
1.311500,0.003644
1.312000,0.013949
1.312500,0.031016
1.313000,0.048727
1.313500,0.061930
1.314000,0.069659
1.314500,0.076099
1.315000,0.081896
1.315500,0.087370
1.316000,0.085438
1.316500,0.083506
1.317000,0.076743
1.317500,0.068049
1.318000,0.054524
1.318500,0.039067
1.319000,0.026508
1.319500,0.009763
1.320000,-0.000542
1.320500,0.017169
1.321000,0.035203
1.321500,0.050982
1.322000,0.063219
1.322500,0.071913
1.323000,0.078032
1.323500,0.081574
1.324000,0.082540
1.324500,0.085438
1.325000,0.083506
1.325500,0.074167
1.326000,0.062252
1.326500,0.050338
1.327000,0.031660
1.327500,0.020389
1.328000,0.007509
1.328500,0.007187
1.329000,0.025542
1.329500,0.043575
1.330000,0.057744
1.330500,0.066761
1.331000,0.073523
1.331500,0.078676
1.332000,0.083184
1.332500,0.084794
1.333000,0.084794
1.333500,0.079320
1.334000,0.072557
1.334500,0.059676
1.335000,0.044219
1.335500,0.030050
1.336000,0.015881
1.336500,0.002678
1.337000,0.009441
1.337500,0.028440
1.338000,0.047761
1.338500,0.060320
1.339000,0.069981
1.339500,0.076421
1.340000,0.079964
1.340500,0.085116
1.341000,0.085760
1.341500,0.084150
1.342000,0.078032
1.342500,0.067727
1.343000,0.055168
1.343500,0.039389
1.344000,0.025864
1.344500,0.011373
1.345000,0.005254
1.345500,0.016525
1.346000,0.037457
1.346500,0.053558
1.347000,0.062897
1.347500,0.073201
1.348000,0.077710
1.348500,0.080608
1.349000,0.084472
1.349500,0.083828
1.350000,0.080930
1.350500,0.073523
1.351000,0.064185
1.351500,0.050982
1.352000,0.036491
1.352500,0.022644
1.353000,0.009441
1.353500,0.001712
1.354000,0.021678
1.354500,0.040677
1.355000,0.054524
1.355500,0.064829
1.356000,0.074167
1.356500,0.078676
1.357000,0.084150
1.357500,0.086726
1.358000,0.081896
1.358500,0.078998
1.359000,0.071269
1.359500,0.059354
1.360000,0.043575
1.360500,0.029728
1.361000,0.015237
1.361500,0.002034
1.362000,0.012339
1.362500,0.031016
1.363000,0.046473
1.363500,0.059032
1.364000,0.070625
1.364500,0.076099
1.365000,0.079964
1.365500,0.084794
1.366000,0.085438
1.366500,0.081252
1.367000,0.077710
1.367500,0.069015
1.368000,0.056134
1.368500,0.039067
1.369000,0.026186
1.369500,0.011695
1.370000,-0.002152
1.370500,0.016203
1.371000,0.035847
1.371500,0.050982
1.372000,0.063863
1.372500,0.073523
1.373000,0.078354
1.373500,0.082218
1.374000,0.086726
1.374500,0.081574
1.375000,0.081574
1.375500,0.075455
1.376000,0.063541
1.376500,0.049694
1.377000,0.034880
1.377500,0.020711
1.378000,0.007509
1.378500,0.007831
1.379000,0.025542
1.379500,0.041965
1.380000,0.055490
1.380500,0.066761
1.381000,0.074811
1.381500,0.077388
1.382000,0.083184
1.382500,0.086404
1.383000,0.084150
1.383500,0.076421
1.384000,0.071269
1.384500,0.059676
1.385000,0.044219
1.385500,0.031982
1.386000,0.020389
1.386500,0.004288
1.387000,0.009441
1.387500,0.027796
1.388000,0.045829
1.388500,0.059676
1.389000,0.071269
1.389500,0.076421
1.390000,0.078676
1.390500,0.084794
1.391000,0.086082
1.391500,0.082540
1.392000,0.077066
1.392500,0.071591
1.393000,0.054202
1.393500,0.039711
1.394000,0.026830
1.394500,0.012017
1.395000,0.003966
1.395500,0.022000
1.396000,0.038423
1.396500,0.053880
1.397000,0.063863
1.397500,0.074811
1.398000,0.079642
1.398500,0.082218
1.399000,0.086726
1.399500,0.085760
1.400000,0.081574
1.400500,0.074489
1.401000,0.064507
1.401500,0.050016
1.402000,0.036491
1.402500,0.024254
1.403000,0.011373
1.403500,0.003966
1.404000,0.021356
1.404500,0.039711
1.405000,0.055168
1.405500,0.067083
1.406000,0.073845
1.406500,0.078676
1.407000,0.083184
1.407500,0.086082
1.408000,0.085116
1.408500,0.079320
1.409000,0.072235
1.409500,0.058710
1.410000,0.044541
1.410500,0.029406
1.411000,0.016203
1.411500,0.003000
1.412000,0.013627
1.412500,0.032948
1.413000,0.048083
1.413500,0.059676
1.414000,0.071269
1.414500,0.077388
1.415000,0.081574
1.415500,0.084794
1.416000,0.086404
1.416500,0.083184
1.417000,0.078676
1.417500,0.070303
1.418000,0.056456
1.418500,0.041965
1.419000,0.026830
1.419500,0.012339
1.420000,0.000424
1.420500,0.015237
1.421000,0.036491
1.421500,0.051948
1.422000,0.061608
1.422500,0.072557
1.423000,0.077388
1.423500,0.081574
1.424000,0.086082
1.424500,0.083828
1.425000,0.082540
1.425500,0.074167
1.426000,0.064507
1.426500,0.049372
1.427000,0.034236
1.427500,0.019423
1.428000,0.007187
1.428500,0.008475
1.429000,0.025220
1.429500,0.043897
1.430000,0.055812
1.430500,0.066439
1.431000,0.074489
1.431500,0.078676
1.432000,0.081896
1.432500,0.085116
1.433000,0.083828
1.433500,0.079642
1.434000,0.072557
1.434500,0.060642
1.435000,0.045829
1.435500,0.032304
1.436000,0.018457
1.436500,0.005576
1.437000,0.013305
1.437500,0.028118
1.438000,0.047761
1.438500,0.059676
1.439000,0.069659
1.439500,0.077066
1.440000,0.080608
1.440500,0.085760
1.441000,0.084794
1.441500,0.082218
1.442000,0.076421
1.442500,0.068371
1.443000,0.055168
1.443500,0.040677
1.444000,0.022966
1.444500,0.010407
1.445000,0.004932
1.445500,0.018135
1.446000,0.036813
1.446500,0.051626
1.447000,0.063219
1.447500,0.073201
1.448000,0.077710
1.448500,0.082540
1.449000,0.086082
1.449500,0.085438
1.450000,0.082540
1.450500,0.073845
1.451000,0.064829
1.451500,0.050338
1.452000,0.032626
1.452500,0.021678
1.453000,0.007187
1.453500,0.003966
1.454000,0.022966
1.454500,0.041321
1.455000,0.055168
1.455500,0.066439
1.456000,0.074489
1.456500,0.078998
1.457000,0.083506
1.457500,0.087370
1.458000,0.084150
1.458500,0.080286
1.459000,0.073845
1.459500,0.057422
1.460000,0.044863
1.460500,0.029084
1.461000,0.017491
1.461500,0.003644
1.462000,0.012017
1.462500,0.030372
1.463000,0.046151
1.463500,0.060964
1.464000,0.069337
1.464500,0.075133
1.465000,0.079964
1.465500,0.084472
1.466000,0.082862
1.466500,0.082540
1.467000,0.078676
1.467500,0.069015
1.468000,0.054524
1.468500,0.039067
1.469000,0.026830
1.469500,0.012017
1.470000,-0.000542
1.470500,0.015237
1.471000,0.034880
1.471500,0.050016
1.472000,0.063219
1.472500,0.071913
1.473000,0.078676
1.473500,0.081252
1.474000,0.084150
1.474500,0.085116
1.475000,0.082218
1.475500,0.076099
1.476000,0.065795
1.476500,0.051304
1.477000,0.036813
1.477500,0.021678
1.478000,0.007509
1.478500,0.005898
1.479000,0.024576
1.479500,0.041643
1.480000,0.054524
1.480500,0.065473
1.481000,0.073201
1.481500,0.078998
1.482000,0.083828
1.482500,0.085760
1.483000,0.085438
1.483500,0.079964
1.484000,0.075133
1.484500,0.060964
1.485000,0.045829
1.485500,0.031660
1.486000,0.017813
1.486500,0.004288
1.487000,0.011695
1.487500,0.029084
1.488000,0.043897
1.488500,0.058388
1.489000,0.068371
1.489500,0.074489
1.490000,0.079964
1.490500,0.083828
1.491000,0.085438
1.491500,0.082862
1.492000,0.076421
1.492500,0.068693
1.493000,0.055812
1.493500,0.039711
1.494000,0.024898
1.494500,0.010407
1.495000,0.004610
1.495500,0.018457
1.496000,0.037135
1.496500,0.054524
1.497000,0.065151
1.497500,0.072879
1.498000,0.078354
1.498500,0.080930
1.499000,0.086726
1.499500,0.082862
1.500000,0.080930
1.500500,0.076099
1.501000,0.064507
1.501500,0.050338
1.502000,0.035203
1.502500,0.022966
1.503000,0.010085
1.503500,0.003966
1.504000,0.022322
1.504500,0.042287
1.505000,0.057422
1.505500,0.065151
1.506000,0.075455
1.506500,0.078032
1.507000,0.083506
1.507500,0.083828
1.508000,0.081896
1.508500,0.079642
1.509000,0.070947
1.509500,0.059032
1.510000,0.044541
1.510500,0.028440
1.511000,0.015237
1.511500,0.002678
1.512000,0.009763
1.512500,0.028440
1.513000,0.046795
1.513500,0.059998
1.514000,0.069337
1.514500,0.078032
1.515000,0.080608
1.515500,0.087048
1.516000,0.084472
1.516500,0.083828
1.517000,0.081252
1.517500,0.069981
1.518000,0.056134
1.518500,0.043253
1.519000,0.025542
1.519500,0.014271
1.520000,-0.000220
1.520500,0.015881
1.521000,0.033592
1.521500,0.049694
1.522000,0.061608
1.522500,0.069981
1.523000,0.077710
1.523500,0.084150
1.524000,0.084472
1.524500,0.088336
1.525000,0.081252
1.525500,0.075133
1.526000,0.066117
1.526500,0.050016
1.527000,0.035525
1.527500,0.022966
1.528000,0.009119
1.528500,0.006220
1.529000,0.024576
1.529500,0.041643
1.530000,0.056778
1.530500,0.068049
1.531000,0.074811
1.531500,0.079320
1.532000,0.084150
1.532500,0.085438
1.533000,0.083828
1.533500,0.079642
1.534000,0.071913
1.534500,0.061286
1.535000,0.048405
1.535500,0.031016
1.536000,0.018457
1.536500,0.002356
1.537000,0.009763
1.537500,0.027474
1.538000,0.045829
1.538500,0.058710
1.539000,0.068049
1.539500,0.077710
1.540000,0.081896
1.540500,0.084472
1.541000,0.086082
1.541500,0.082862
1.542000,0.076099
1.542500,0.068049
1.543000,0.055812
1.543500,0.040033
1.544000,0.025864
1.544500,0.016203
1.545000,0.003322
1.545500,0.015559
1.546000,0.035525
1.546500,0.050660
1.547000,0.062574
1.547500,0.072557
1.548000,0.078032
1.548500,0.081574
1.549000,0.085760
1.549500,0.084472
1.550000,0.080608
1.550500,0.073845
1.551000,0.064829
1.551500,0.050016
1.552000,0.036491
1.552500,0.022966
1.553000,0.009119
1.553500,0.001068
1.554000,0.021356
1.554500,0.040355
1.555000,0.055168
1.555500,0.066761
1.556000,0.074167
1.556500,0.076421
1.557000,0.084794
1.557500,0.085760
1.558000,0.084150
1.558500,0.079642
1.559000,0.074167
1.559500,0.059676
1.560000,0.046151
1.560500,0.031338
1.561000,0.015881
1.561500,0.003966
1.562000,0.012017
1.562500,0.029406
1.563000,0.046795
1.563500,0.059998
1.564000,0.069015
1.564500,0.076099
1.565000,0.081574
1.565500,0.083506
1.566000,0.085116
1.566500,0.082218
1.567000,0.077066
1.567500,0.069337
1.568000,0.055812
1.568500,0.042287
1.569000,0.026186
1.569500,0.013949
1.570000,-0.000864
1.570500,0.013949
1.571000,0.033914
1.571500,0.050982
1.572000,0.061930
1.572500,0.071913
1.573000,0.076743
1.573500,0.081252
1.574000,0.085760
1.574500,0.084472
1.575000,0.080930
1.575500,0.075777
1.576000,0.066439
1.576500,0.050660
1.577000,0.035525
1.577500,0.022966
1.578000,0.008475
1.578500,0.006542
1.579000,0.024254
1.579500,0.040999
1.580000,0.056134
1.580500,0.067405
1.581000,0.074489
1.581500,0.078676
1.582000,0.082218
1.582500,0.085116
1.583000,0.084472
1.583500,0.080930
1.584000,0.074811
1.584500,0.061930
1.585000,0.046151
1.585500,0.032626
1.586000,0.020067
1.586500,0.004288
1.587000,0.007831
1.587500,0.028118
1.588000,0.046795
1.588500,0.059354
1.589000,0.068693
1.589500,0.075455
1.590000,0.079320
1.590500,0.083184
1.591000,0.083828
1.591500,0.083828
1.592000,0.077388
1.592500,0.068693
1.593000,0.054524
1.593500,0.040355
1.594000,0.023288
1.594500,0.011051
1.595000,0.003644
1.595500,0.016525
1.596000,0.035847
1.596500,0.051304
1.597000,0.064829
1.597500,0.072557
1.598000,0.078676
1.598500,0.081574
1.599000,0.087370
1.599500,0.084472
1.600000,0.081574
1.600500,0.078032
1.601000,0.067727
1.601500,0.053236
1.602000,0.037779
1.602500,0.024898
1.603000,0.011373
1.603500,-0.002474
1.604000,0.021356
1.604500,0.039711
1.605000,0.054202
1.605500,0.064829
1.606000,0.072557
1.606500,0.077066
1.607000,0.081896
1.607500,0.084150
1.608000,0.084472
1.608500,0.078998
1.609000,0.072235
1.609500,0.060642
1.610000,0.044863
1.610500,0.030694
1.611000,0.016525
1.611500,0.003322
1.612000,0.010407
1.612500,0.030372
1.613000,0.046151
1.613500,0.059998
1.614000,0.069337
1.614500,0.077388
1.615000,0.082862
1.615500,0.085760
1.616000,0.087048
1.616500,0.084472
1.617000,0.078676
1.617500,0.071269
1.618000,0.056778
1.618500,0.042931
1.619000,0.029084
1.619500,0.015559
1.620000,0.002356
1.620500,0.012983
1.621000,0.031982
1.621500,0.049372
1.622000,0.059998
1.622500,0.069981
1.623000,0.076421
1.623500,0.080608
1.624000,0.083506
1.624500,0.084150
1.625000,0.079642
1.625500,0.074167
1.626000,0.062897
1.626500,0.050338
1.627000,0.033592
1.627500,0.021033
1.628000,0.005254
1.628500,0.005898
1.629000,0.022000
1.629500,0.040999
1.630000,0.056134
1.630500,0.066761
1.631000,0.074167
1.631500,0.078998
1.632000,0.084150
1.632500,0.085760
1.633000,0.082862
1.633500,0.080286
1.634000,0.072557
1.634500,0.061286
1.635000,0.046795
1.635500,0.031660
1.636000,0.017813
1.636500,0.005576
1.637000,0.008797
1.637500,0.027152
1.638000,0.043253
1.638500,0.056778
1.639000,0.068049
1.639500,0.073201
1.640000,0.078032
1.640500,0.084472
1.641000,0.086082
1.641500,0.083828
1.642000,0.079320
1.642500,0.069981
1.643000,0.056778
1.643500,0.041643
1.644000,0.025220
1.644500,0.012983
1.645000,0.002034
1.645500,0.017169
1.646000,0.037135
1.646500,0.050982
1.647000,0.061608
1.647500,0.070303
1.648000,0.076743
1.648500,0.080608
1.649000,0.084150
1.649500,0.084794
1.650000,0.082862
1.650500,0.074489
1.651000,0.064507
1.651500,0.051304
1.652000,0.036169
1.652500,0.022966
1.653000,0.010407
1.653500,0.001712
1.654000,0.019423
1.654500,0.039711
1.655000,0.055490
1.655500,0.065151
1.656000,0.073523
1.656500,0.079320
1.657000,0.081252
1.657500,0.085438
1.658000,0.084472
1.658500,0.080286
1.659000,0.074811
1.659500,0.062252
1.660000,0.049050
1.660500,0.031016
1.661000,0.017491
1.661500,0.003966
1.662000,0.010729
1.662500,0.028440
1.663000,0.046151
1.663500,0.059032
1.664000,0.069659
1.664500,0.074167
1.665000,0.079964
1.665500,0.085760
1.666000,0.086404
1.666500,0.083506
1.667000,0.078998
1.667500,0.071269
1.668000,0.058710
1.668500,0.044863
1.669000,0.029728
1.669500,0.015881
1.670000,0.004288
1.670500,0.015237
1.671000,0.032626
1.671500,0.049694
1.672000,0.058710
1.672500,0.069659
1.673000,0.076099
1.673500,0.081896
1.674000,0.084472
1.674500,0.086082
1.675000,0.079964
1.675500,0.073523
1.676000,0.064829
1.676500,0.052914
1.677000,0.035847
1.677500,0.022322
1.678000,0.008797
1.678500,0.006542
1.679000,0.022000
1.679500,0.042287
1.680000,0.055168
1.680500,0.066761
1.681000,0.075133
1.681500,0.078354
1.682000,0.083184
1.682500,0.085116
1.683000,0.083506
1.683500,0.081896
1.684000,0.073845
1.684500,0.061286
1.685000,0.046473
1.685500,0.031660
1.686000,0.016525
1.686500,0.004610
1.687000,0.006864
1.687500,0.026186
1.688000,0.044219
1.688500,0.057744
1.689000,0.067083
1.689500,0.073201
1.690000,0.078998
1.690500,0.082862
1.691000,0.086082
1.691500,0.081574
1.692000,0.077388
1.692500,0.070625
1.693000,0.057100
1.693500,0.044541
1.694000,0.027152
1.694500,0.012983
1.695000,0.001712
1.695500,0.016203
1.696000,0.034236
1.696500,0.049050
1.697000,0.062574
1.697500,0.071591
1.698000,0.076743
1.698500,0.081252
1.699000,0.085760
1.699500,0.084472
1.700000,0.082862
1.700500,0.077066
1.701000,0.067727
1.701500,0.053880
1.702000,0.038423
1.702500,0.023610
1.703000,0.007831
1.703500,-0.002796
1.704000,0.018779
1.704500,0.040033
1.705000,0.053236
1.705500,0.066439
1.706000,0.073523
1.706500,0.078354
1.707000,0.085116
1.707500,0.085760
1.708000,0.084472
1.708500,0.080608
1.709000,0.073201
1.709500,0.060964
1.710000,0.046473
1.710500,0.030050
1.711000,0.015237
1.711500,0.005254
1.712000,0.011695
1.712500,0.031016
1.713000,0.045829
1.713500,0.060320
1.714000,0.068693
1.714500,0.076421
1.715000,0.078676
1.715500,0.083184
1.716000,0.083828
1.716500,0.082218
1.717000,0.078676
1.717500,0.071269
1.718000,0.057744
1.718500,0.043575
1.719000,0.028762
1.719500,0.014593
1.720000,0.002356
1.720500,0.012983
1.721000,0.032304
1.721500,0.051626
1.722000,0.059998
1.722500,0.070625
1.723000,0.075777
1.723500,0.079642
1.724000,0.082862
1.724500,0.084794
1.725000,0.080286
1.725500,0.074811
1.726000,0.063863
1.726500,0.050338
1.727000,0.035203
1.727500,0.022322
1.728000,0.005898
1.728500,0.004610
1.729000,0.022000
1.729500,0.040355
1.730000,0.054524
1.730500,0.066117
1.731000,0.073201
1.731500,0.079320
1.732000,0.082862
1.732500,0.086082
1.733000,0.083828
1.733500,0.080930
1.734000,0.074489
1.734500,0.063219
1.735000,0.047761
1.735500,0.035525
1.736000,0.020067
1.736500,0.005254
1.737000,0.008475
1.737500,0.025542
1.738000,0.044219
1.738500,0.058066
1.739000,0.068371
1.739500,0.074811
1.740000,0.079964
1.740500,0.085438
1.741000,0.087048
1.741500,0.081252
1.742000,0.078676
1.742500,0.070625
1.743000,0.057422
1.743500,0.044219
1.744000,0.027152
1.744500,0.013305
1.745000,0.003644
1.745500,0.017169
1.746000,0.034236
1.746500,0.050338
1.747000,0.061930
1.747500,0.070947
1.748000,0.076421
1.748500,0.081896
1.749000,0.086726
1.749500,0.085438
1.750000,0.081574
1.750500,0.075455
1.751000,0.065473
1.751500,0.050982
1.752000,0.036813
1.752500,0.023932
1.753000,0.012661
1.753500,-0.004084
1.754000,0.018457
1.754500,0.038101
1.755000,0.052914
1.755500,0.063219
1.756000,0.071591
1.756500,0.075455
1.757000,0.082862
1.757500,0.084794
1.758000,0.085116
1.758500,0.081896
1.759000,0.074811
1.759500,0.061608
1.760000,0.048405
1.760500,0.032626
1.761000,0.018779
1.761500,0.005898
1.762000,0.010729
1.762500,0.028440
1.763000,0.045507
1.763500,0.059676
1.764000,0.068371
1.764500,0.076099
1.765000,0.080608
1.765500,0.083506
1.766000,0.086404
1.766500,0.084472
1.767000,0.079320
1.767500,0.070625
1.768000,0.057744
1.768500,0.042931
1.769000,0.027152
1.769500,0.013627
1.770000,0.001390
1.770500,0.014593
1.771000,0.032626
1.771500,0.048727
1.772000,0.060642
1.772500,0.070303
1.773000,0.074811
1.773500,0.078998
1.774000,0.084150
1.774500,0.085116
1.775000,0.080608
1.775500,0.076421
1.776000,0.063541
1.776500,0.050660
1.777000,0.035525
1.777500,0.020067
1.778000,0.006542
1.778500,0.004932
1.779000,0.022000
1.779500,0.039711
1.780000,0.056134
1.780500,0.066117
1.781000,0.074167
1.781500,0.080286
1.782000,0.084472
1.782500,0.086726
1.783000,0.085438
1.783500,0.081252
1.784000,0.074811
1.784500,0.064507
1.785000,0.048083
1.785500,0.032626
1.786000,0.020067
1.786500,0.006864
1.787000,0.008153
1.787500,0.025220
1.788000,0.044219
1.788500,0.058388
1.789000,0.067405
1.789500,0.074167
1.790000,0.079964
1.790500,0.083184
1.791000,0.085438
1.791500,0.084472
1.792000,0.079320
1.792500,0.072235
1.793000,0.057744
1.793500,0.040033
1.794000,0.029084
1.794500,0.013305
1.795000,0.001712
1.795500,0.014271
1.796000,0.031338
1.796500,0.050338
1.797000,0.061930
1.797500,0.070625
1.798000,0.077066
1.798500,0.080608
1.799000,0.086082
1.799500,0.085438
1.800000,0.082218
1.800500,0.077066
1.801000,0.067083
1.801500,0.053880
1.802000,0.036169
1.802500,0.022966
1.803000,0.010729
1.803500,-0.002474
1.804000,0.019745
1.804500,0.038423
1.805000,0.053880
1.805500,0.065151
1.806000,0.073201
1.806500,0.077710
1.807000,0.082540
1.807500,0.084794
1.808000,0.082862
1.808500,0.078998
1.809000,0.073201
1.809500,0.060320
1.810000,0.046795
1.810500,0.029406
1.811000,0.018135
1.811500,0.005254
1.812000,0.010729
1.812500,0.028762
1.813000,0.046151
1.813500,0.059354
1.814000,0.065795
1.814500,0.074167
1.815000,0.079964
1.815500,0.084794
1.816000,0.087048
1.816500,0.083184
1.817000,0.080286
1.817500,0.070303
1.818000,0.057744
1.818500,0.041965
1.819000,0.028118
1.819500,0.015237
1.820000,0.002356
1.820500,0.013305
1.821000,0.031660
1.821500,0.048405
1.822000,0.060642
1.822500,0.070625
1.823000,0.076099
1.823500,0.080286
1.824000,0.084794
1.824500,0.085116
1.825000,0.082862
1.825500,0.076743
1.826000,0.066117
1.826500,0.054524
1.827000,0.037457
1.827500,0.023932
1.828000,0.008797
1.828500,0.005898
1.829000,0.021356
1.829500,0.040355
1.830000,0.054524
1.830500,0.065473
1.831000,0.072557
1.831500,0.081252
1.832000,0.082540
1.832500,0.085760
1.833000,0.085116
1.833500,0.080286
1.834000,0.073201
1.834500,0.061930
1.835000,0.047117
1.835500,0.032948
1.836000,0.019101
1.836500,0.005898
1.837000,0.008153
1.837500,0.026830
1.838000,0.044541
1.838500,0.057422
1.839000,0.067727
1.839500,0.076421
1.840000,0.079320
1.840500,0.085116
1.841000,0.086404
1.841500,0.084150
1.842000,0.077388
1.842500,0.070947
1.843000,0.059032
1.843500,0.040355
1.844000,0.028762
1.844500,0.014593
1.845000,0.002356
1.845500,0.015237
1.846000,0.034236
1.846500,0.049694
1.847000,0.061930
1.847500,0.071269
1.848000,0.079642
1.848500,0.082218
1.849000,0.083828
1.849500,0.083506
1.850000,0.080930
1.850500,0.077066
1.851000,0.066761
1.851500,0.052592
1.852000,0.038423
1.852500,0.025220
1.853000,0.012983
1.853500,-0.001508
1.854000,0.019101
1.854500,0.036813
1.855000,0.054846
1.855500,0.064829
1.856000,0.073201
1.856500,0.077388
1.857000,0.082218
1.857500,0.084794
1.858000,0.083506
1.858500,0.080930
1.859000,0.074167
1.859500,0.062252
1.860000,0.047117
1.860500,0.031982
1.861000,0.018135
1.861500,0.004288
1.862000,0.009441
1.862500,0.028762
1.863000,0.044863
1.863500,0.058710
1.864000,0.066439
1.864500,0.075777
1.865000,0.079642
1.865500,0.084150
1.866000,0.086404
1.866500,0.083506
1.867000,0.078676
1.867500,0.071591
1.868000,0.058388
1.868500,0.042609
1.869000,0.027474
1.869500,0.015237
1.870000,0.000746
1.870500,0.013305
1.871000,0.032626
1.871500,0.047439
1.872000,0.062574
1.872500,0.070625
1.873000,0.072557
1.873500,0.079964
1.874000,0.087048
1.874500,0.086404
1.875000,0.082862
1.875500,0.076421
1.876000,0.067083
1.876500,0.057422
1.877000,0.037779
1.877500,0.022322
1.878000,0.008475
1.878500,0.005254
1.879000,0.021356
1.879500,0.039067
1.880000,0.052914
1.880500,0.064829
1.881000,0.072879
1.881500,0.079964
1.882000,0.084794
1.882500,0.086404
1.883000,0.085438
1.883500,0.081896
1.884000,0.075777
1.884500,0.062897
1.885000,0.050338
1.885500,0.034558
1.886000,0.017813
1.886500,0.007831
1.887000,0.006542
1.887500,0.024898
1.888000,0.044219
1.888500,0.056134
1.889000,0.068049
1.889500,0.075133
1.890000,0.079964
1.890500,0.086082
1.891000,0.087692
1.891500,0.083506
1.892000,0.078998
1.892500,0.071913
1.893000,0.058710
1.893500,0.042931
1.894000,0.029406
1.894500,0.015881
1.895000,0.001068
1.895500,0.014271
1.896000,0.031660
1.896500,0.048405
1.897000,0.061286
1.897500,0.070947
1.898000,0.078676
1.898500,0.081896
1.899000,0.084472
1.899500,0.086082
1.900000,0.082540
1.900500,0.081574
1.901000,0.070625
1.901500,0.057744
1.902000,0.039389
1.902500,0.027474
1.903000,0.009763
1.903500,0.001390
1.904000,0.020389
1.904500,0.039711
1.905000,0.056456
1.905500,0.066761
1.906000,0.075133
1.906500,0.078998
1.907000,0.083184
1.907500,0.085760
1.908000,0.085116
1.908500,0.080930
1.909000,0.075455
1.909500,0.062574
1.910000,0.048405
1.910500,0.032304
1.911000,0.018135
1.911500,0.007831
1.912000,0.010085
1.912500,0.026830
1.913000,0.044863
1.913500,0.059032
1.914000,0.069015
1.914500,0.075133
1.915000,0.080286
1.915500,0.082862
1.916000,0.086404
1.916500,0.082218
1.917000,0.079642
1.917500,0.072235
1.918000,0.055812
1.918500,0.043253
1.919000,0.027796
1.919500,0.014915
1.920000,0.000746
1.920500,0.014593
1.921000,0.031338
1.921500,0.048727
1.922000,0.061608
1.922500,0.071591
1.923000,0.078032
1.923500,0.083828
1.924000,0.085438
1.924500,0.087048
1.925000,0.082218
1.925500,0.076743
1.926000,0.067727
1.926500,0.051626
1.927000,0.037779
1.927500,0.023610
1.928000,0.008475
1.928500,0.005576
1.929000,0.020067
1.929500,0.039711
1.930000,0.054846
1.930500,0.066117
1.931000,0.074811
1.931500,0.079642
1.932000,0.084794
1.932500,0.085438
1.933000,0.087048
1.933500,0.081896
1.934000,0.075133
1.934500,0.064185
1.935000,0.048727
1.935500,0.034880
1.936000,0.020389
1.936500,0.008475
1.937000,0.006864
1.937500,0.026508
1.938000,0.044541
1.938500,0.057422
1.939000,0.067727
1.939500,0.074811
1.940000,0.076743
1.940500,0.084794
1.941000,0.086404
1.941500,0.082218
1.942000,0.078676
1.942500,0.071591
1.943000,0.058066
1.943500,0.042931
1.944000,0.028440
1.944500,0.014271
1.945000,0.002678
1.945500,0.016847
1.946000,0.035525
1.946500,0.050660
1.947000,0.063541
1.947500,0.072557
1.948000,0.078998
1.948500,0.084150
1.949000,0.086404
1.949500,0.085760
1.950000,0.083184
1.950500,0.077388
1.951000,0.066439
1.951500,0.052592
1.952000,0.036491
1.952500,0.022966
1.953000,0.008797
1.953500,0.000746
1.954000,0.018779
1.954500,0.039389
1.955000,0.054524
1.955500,0.065473
1.956000,0.073523
1.956500,0.078998
1.957000,0.085116
1.957500,0.088014
1.958000,0.086726
1.958500,0.082862
1.959000,0.076099
1.959500,0.062574
1.960000,0.048083
1.960500,0.031660
1.961000,0.018135
1.961500,0.006220
1.962000,0.011373
1.962500,0.029084
1.963000,0.047439
1.963500,0.060642
1.964000,0.072235
1.964500,0.078676
1.965000,0.078998
1.965500,0.083828
1.966000,0.085438
1.966500,0.083828
1.967000,0.079320
1.967500,0.072235
1.968000,0.059998
1.968500,0.044863
1.969000,0.032948
1.969500,0.017491
1.970000,0.003322
1.970500,0.012339
1.971000,0.030050
1.971500,0.047117
1.972000,0.059998
1.972500,0.068693
1.973000,0.075133
1.973500,0.080608
1.974000,0.085438
1.974500,0.085438
1.975000,0.081252
1.975500,0.076421
1.976000,0.065795
1.976500,0.051304
1.977000,0.035847
1.977500,0.022644
1.978000,0.009763
1.978500,0.006864
1.979000,0.021356
1.979500,0.039389
1.980000,0.055490
1.980500,0.065473
1.981000,0.075455
1.981500,0.081896
1.982000,0.084150
1.982500,0.086726
1.983000,0.086082
1.983500,0.082862
1.984000,0.076421
1.984500,0.065795
1.985000,0.050016
1.985500,0.034558
1.986000,0.023288
1.986500,0.009441
1.987000,0.006542
1.987500,0.024576
1.988000,0.043897
1.988500,0.057744
1.989000,0.067727
1.989500,0.076099
1.990000,0.078998
1.990500,0.084472
1.991000,0.085760
1.991500,0.083184
1.992000,0.079642
1.992500,0.072879
1.993000,0.058388
1.993500,0.042287
1.994000,0.027474
1.994500,0.012983
1.995000,0.003322
1.995500,0.014593
1.996000,0.033592
1.996500,0.049694
1.997000,0.061608
1.997500,0.073845
1.998000,0.078032
1.998500,0.081574
1.999000,0.085438
1.999500,0.086082
2.000000,0.081896
2.000500,0.078354
2.001000,0.071269
2.001500,0.055812
2.002000,0.039389
2.002500,0.023610
2.003000,0.012017
2.003500,-0.001830
2.004000,0.019423
2.004500,0.038101
2.005000,0.052592
2.005500,0.066439
2.006000,0.077388
2.006500,0.080608
2.007000,0.085438
2.007500,0.087692
2.008000,0.084472
2.008500,0.080608
2.009000,0.074167
2.009500,0.063863
2.010000,0.047439
2.010500,0.034236
2.011000,0.020389
2.011500,0.005576
2.012000,0.009763
2.012500,0.026830
2.013000,0.044541
2.013500,0.058710
2.014000,0.069981
2.014500,0.076421
2.015000,0.079964
2.015500,0.085760
2.016000,0.086404
2.016500,0.083506
2.017000,0.078998
2.017500,0.071913
2.018000,0.059032
2.018500,0.043575
2.019000,0.029406
2.019500,0.015559
2.020000,0.003000
2.020500,0.012983
2.021000,0.031660
2.021500,0.050338
2.022000,0.059998
2.022500,0.072235
2.023000,0.079964
2.023500,0.081574
2.024000,0.084794
2.024500,0.085438
2.025000,0.083184
2.025500,0.076421
2.026000,0.069337
2.026500,0.051626
2.027000,0.037457
2.027500,0.023610
2.028000,0.008153
2.028500,0.004610
2.029000,0.021356
2.029500,0.039711
2.030000,0.054846
2.030500,0.066761
2.031000,0.075133
2.031500,0.081896
2.032000,0.085438
2.032500,0.089302
2.033000,0.088014
2.033500,0.083828
2.034000,0.078676
2.034500,0.067405
2.035000,0.050982
2.035500,0.036491
2.036000,0.024576
2.036500,0.010085
2.037000,0.003644
2.037500,0.022966
2.038000,0.042287
2.038500,0.057422
2.039000,0.067727
2.039500,0.074489
2.040000,0.077710
2.040500,0.083828
2.041000,0.086404
2.041500,0.083828
2.042000,0.078354
2.042500,0.070625
2.043000,0.055812
2.043500,0.042287
2.044000,0.027152
2.044500,0.013305
2.045000,0.002034
2.045500,0.015881
2.046000,0.033270
2.046500,0.050016
2.047000,0.061608
2.047500,0.070947
2.048000,0.077388
2.048500,0.080608
2.049000,0.085116
2.049500,0.083506
2.050000,0.080930
2.050500,0.075777
2.051000,0.066439
2.051500,0.051948
2.052000,0.039389
2.052500,0.023610
2.053000,0.011051
2.053500,-0.004084
2.054000,0.018135
2.054500,0.036813
2.055000,0.054202
2.055500,0.064829
2.056000,0.075455
2.056500,0.080930
2.057000,0.083828
2.057500,0.088658
2.058000,0.085116
2.058500,0.082218
2.059000,0.074811
2.059500,0.063541
2.060000,0.048727
2.060500,0.032626
2.061000,0.019423
2.061500,0.006220
2.062000,0.009763
2.062500,0.027152
2.063000,0.044219
2.063500,0.059354
2.064000,0.067727
2.064500,0.074811
2.065000,0.078676
2.065500,0.084794
2.066000,0.085116
2.066500,0.084150
2.067000,0.078032
2.067500,0.069981
2.068000,0.054524
2.068500,0.040355
2.069000,0.026508
2.069500,0.011373
2.070000,-0.001186
2.070500,0.013305
2.071000,0.031338
2.071500,0.046795
2.072000,0.059354
2.072500,0.071269
2.073000,0.078032
2.073500,0.083506
2.074000,0.083506
2.074500,0.082862
2.075000,0.077710
2.075500,0.069981
2.076000,0.062252
2.076500,0.048405
2.077000,0.035525
2.077500,0.021356
2.078000,0.007831
2.078500,0.007187
2.079000,0.025864
2.079500,0.040355
2.080000,0.055168
2.080500,0.066117
2.081000,0.076743
2.081500,0.080286
2.082000,0.083828
2.082500,0.085760
2.083000,0.084150
2.083500,0.078676
2.084000,0.073201
2.084500,0.060642
2.085000,0.048083
2.085500,0.033914
2.086000,0.020067
2.086500,0.009119
2.087000,0.005576
2.087500,0.022322
2.088000,0.039389
2.088500,0.051948
2.089000,0.060320
2.089500,0.066117
2.090000,0.070303
2.090500,0.075133
2.091000,0.080608
2.091500,0.081574
2.092000,0.076421
2.092500,0.072235
2.093000,0.058388
2.093500,0.044863
2.094000,0.028118
2.094500,0.017813
2.095000,0.008153
2.095500,0.006542
2.096000,0.022322
2.096500,0.039067
2.097000,0.054202
2.097500,0.064829
2.098000,0.073845
2.098500,0.078032
2.099000,0.084794
2.099500,0.086404
2.100000,0.084150
2.100500,0.079964
2.101000,0.071269
2.101500,0.056134
2.102000,0.038745
2.102500,0.024898
2.103000,0.014271
2.103500,0.006220
2.104000,0.004932
2.104500,0.019745
2.105000,0.029728
2.105500,0.039389
2.106000,0.046795
2.106500,0.051304
2.107000,0.053880
2.107500,0.053236
2.108000,0.053558
2.108500,0.049372
2.109000,0.043575
2.109500,0.035203
2.110000,0.022966
2.110500,0.014915
2.111000,0.006864
2.111500,0.002678
2.112000,0.002356
2.112500,0.004610
2.113000,0.012983
2.113500,0.016525
2.114000,0.020389
2.114500,0.026508
2.115000,0.031016
2.115500,0.038745
2.116000,0.044219
2.116500,0.041643
2.117000,0.044219
2.117500,0.045185
2.118000,0.040033
2.118500,0.034236
2.119000,0.026186
2.119500,0.014593
2.120000,0.004610
2.120500,0.010085
2.121000,0.023932
2.121500,0.039067
2.122000,0.054846
2.122500,0.063541
2.123000,0.069659
2.123500,0.072879
2.124000,0.077388
2.124500,0.078998
2.125000,0.074811
2.125500,0.073201
2.126000,0.064507
2.126500,0.052270
2.127000,0.034880
2.127500,0.023932
2.128000,0.011051
2.128500,0.004288
2.129000,0.017491
2.129500,0.037457
2.130000,0.052914
2.130500,0.065151
2.131000,0.072557
2.131500,0.078998
2.132000,0.084150
2.132500,0.085760
2.133000,0.085116
2.133500,0.079964
2.134000,0.071913
2.134500,0.062252
2.135000,0.045829
2.135500,0.029728
2.136000,0.016847
2.136500,0.005576
2.137000,0.005254
2.137500,0.028118
2.138000,0.049050
2.138500,0.065795
2.139000,0.077066
2.139500,0.084150
2.140000,0.084150
2.140500,0.089302
2.141000,0.091557
2.141500,0.092845
2.142000,0.088658
2.142500,0.081896
2.143000,0.067727
2.143500,0.043897
2.144000,0.019745
2.144500,0.005576
2.145000,0.020067
2.145500,0.036491
2.146000,0.057100
2.146500,0.072235
2.147000,0.085760
2.147500,0.094455
2.148000,0.102505
2.148500,0.103793
2.149000,0.102827
2.149500,0.101217
2.150000,0.092523
2.150500,0.084794
2.151000,0.072879
2.151500,0.056778
2.152000,0.042287
2.152500,0.030372
2.153000,0.018779
2.153500,0.005254
2.154000,0.004932
2.154500,0.023288
2.155000,0.041965
2.155500,0.050660
2.156000,0.055168
2.156500,0.059998
2.157000,0.065473
2.157500,0.071269
2.158000,0.072879
2.158500,0.070303
2.159000,0.064829
2.159500,0.055490
2.160000,0.044219
2.160500,0.029084
2.161000,0.014915
2.161500,0.002034
2.162000,0.012339
2.162500,0.028118
2.163000,0.043897
2.163500,0.060320
2.164000,0.069981
2.164500,0.073523
2.165000,0.075133
2.165500,0.078676
2.166000,0.080286
2.166500,0.076743
2.167000,0.070625
2.167500,0.063219
2.168000,0.051304
2.168500,0.034236
2.169000,0.021356
2.169500,0.012339
2.170000,-0.003440
2.170500,0.015237
2.171000,0.035525
2.171500,0.053236
2.172000,0.059354
2.172500,0.067405
2.173000,0.078998
2.173500,0.089624
2.174000,0.094777
2.174500,0.098963
2.175000,0.097997
2.175500,0.094133
2.176000,0.087692
2.176500,0.075777
2.177000,0.062574
2.177500,0.056778
2.178000,0.041321
2.178500,0.024576
2.179000,0.007187
2.179500,0.011695
2.180000,0.034236
2.180500,0.050338
2.181000,0.060964
2.181500,0.061930
2.182000,0.064507
2.182500,0.065795
2.183000,0.063863
2.183500,0.058066
2.184000,0.049694
2.184500,0.040355
2.185000,0.029728
2.185500,0.021033
2.186000,0.008153
2.186500,0.006542
2.187000,0.022966
2.187500,0.040999
2.188000,0.065473
2.188500,0.087692
2.189000,0.101539
2.189500,0.112166
2.190000,0.116674
2.190500,0.123115
2.191000,0.122471
2.191500,0.115064
2.192000,0.112166
2.192500,0.100251
2.193000,0.088014
2.193500,0.074489
2.194000,0.059998
2.194500,0.043253
2.195000,0.031338
2.195500,0.015559
2.196000,0.005898
2.196500,0.016203
2.197000,0.022644
2.197500,0.034236
2.198000,0.042931
2.198500,0.050016
2.199000,0.051304
2.199500,0.048083
2.200000,0.039711
2.200500,0.026508
2.201000,0.010085
2.201500,0.016525
2.202000,0.049694
2.202500,0.096065
2.203000,0.132131
2.203500,0.128267
2.204000,0.111522
2.204500,0.092201
2.205000,0.071269
2.205500,0.052592
2.206000,0.035525
2.206500,0.022000
2.207000,0.013949
2.207500,0.008153
2.208000,0.002034
2.208500,0.014271
2.209000,0.021678
2.209500,0.023610
2.210000,0.029406
2.210500,0.036491
2.211000,0.041643
2.211500,0.045507
2.212000,0.052270
2.212500,0.073845
2.213000,0.093167
2.213500,0.108624
2.214000,0.117962
2.214500,0.127945
2.215000,0.138572
2.215500,0.147267
2.216000,0.152741
2.216500,0.155961
2.217000,0.151131
2.217500,0.142114
2.218000,0.123115
2.218500,0.100251
2.219000,0.078354
2.219500,0.053236
2.220000,0.031660
2.220500,0.015559
2.221000,0.001390
2.221500,0.010729
2.222000,0.019745
2.222500,0.027796
2.223000,0.038101
2.223500,0.041643
2.224000,0.039711
2.224500,0.036491
2.225000,0.029406
2.225500,0.020711
2.226000,0.013627
2.226500,0.010729
2.227000,0.008797
2.227500,0.002356
2.228000,0.008475
2.228500,0.017169
2.229000,0.030050
2.229500,0.049372
2.230000,0.065473
2.230500,0.082218
2.231000,0.093811
2.231500,0.095743
2.232000,0.097031
2.232500,0.100895
2.233000,0.105404
2.233500,0.106370
2.234000,0.106370
2.234500,0.097031
2.235000,0.080930
2.235500,0.068693
2.236000,0.058066
2.236500,0.050016
2.237000,0.041643
2.237500,0.021356
2.238000,-0.001186
2.238500,0.018457
2.239000,0.032626
2.239500,0.044541
2.240000,0.053236
2.240500,0.062252
2.241000,0.069659
2.241500,0.076099
2.242000,0.078998
2.242500,0.071913
2.243000,0.059998
2.243500,0.042609
2.244000,0.028440
2.244500,0.015237
2.245000,0.004932
2.245500,0.011051
2.246000,0.033592
2.246500,0.056134
2.247000,0.070625
2.247500,0.082540
2.248000,0.091879
2.248500,0.092845
2.249000,0.092845
2.249500,0.092845
2.250000,0.090268
2.250500,0.083828
2.251000,0.072235
2.251500,0.054524
2.252000,0.032626
2.252500,0.005898
2.253000,0.017813
2.253500,0.031338
2.254000,0.044541
2.254500,0.065795
2.255000,0.087048
2.255500,0.096065
2.256000,0.100895
2.256500,0.101539
2.257000,0.102183
2.257500,0.099607
2.258000,0.098641
2.258500,0.094777
2.259000,0.090268
2.259500,0.080608
2.260000,0.063219
2.260500,0.047439
2.261000,0.033270
2.261500,0.018135
2.262000,0.001390
2.262500,0.018779
2.263000,0.038101
2.263500,0.050016
2.264000,0.056456
2.264500,0.061930
2.265000,0.067083
2.265500,0.070625
2.266000,0.079964
2.266500,0.078354
2.267000,0.072235
2.267500,0.061608
2.268000,0.046795
2.268500,0.032626
2.269000,0.012661
2.269500,-0.004406
2.270000,0.016525
2.270500,0.029406
2.271000,0.046795
2.271500,0.065473
2.272000,0.072557
2.272500,0.072557
2.273000,0.069015
2.273500,0.069337
2.274000,0.069659
2.274500,0.073845
2.275000,0.077066
2.275500,0.084150
2.276000,0.085760
2.276500,0.077388
2.277000,0.068371
2.277500,0.056778
2.278000,0.040677
2.278500,0.025220
2.279000,0.007187
2.279500,0.016525
2.280000,0.037457
2.280500,0.056456
2.281000,0.076421
2.281500,0.092845
2.282000,0.100251
2.282500,0.098641
2.283000,0.088336
2.283500,0.073523
2.284000,0.057100
2.284500,0.042609
2.285000,0.028440
2.285500,0.012661
2.286000,0.000424
2.286500,0.016847
2.287000,0.031982
2.287500,0.045829
2.288000,0.062574
2.288500,0.078676
2.289000,0.090913
2.289500,0.100251
2.290000,0.100895
2.290500,0.109912
2.291000,0.114420
2.291500,0.109912
2.292000,0.094455
2.292500,0.080608
2.293000,0.066439
2.293500,0.050338
2.294000,0.034558
2.294500,0.022000
2.295000,0.011695
2.295500,0.004610
2.296000,0.016203
2.296500,0.026508
2.297000,0.033592
2.297500,0.038101
2.298000,0.044863
2.298500,0.048405
2.299000,0.046795
2.299500,0.045829
2.300000,0.041321
2.300500,0.035525
2.301000,0.030050
2.301500,0.023932
2.302000,0.014271
2.302500,0.002034
2.303000,0.009763
2.303500,0.020067
2.304000,0.022322
2.304500,0.032626
2.305000,0.045829
2.305500,0.060642
2.306000,0.070303
2.306500,0.076743
2.307000,0.081896
2.307500,0.088014
2.308000,0.092201
2.308500,0.090268
2.309000,0.084150
2.309500,0.070947
2.310000,0.046151
2.310500,0.026830
2.311000,0.013305
2.311500,0.002034
2.312000,0.007509
2.312500,0.022000
2.313000,0.038101
2.313500,0.060642
2.314000,0.076421
2.314500,0.088980
2.315000,0.096387
2.315500,0.100895
2.316000,0.097353
2.316500,0.095743
2.317000,0.097031
2.317500,0.092845
2.318000,0.088336
2.318500,0.072879
2.319000,0.053558
2.319500,0.032626
2.320000,0.016525
2.320500,0.000424
2.321000,0.017169
2.321500,0.033270
2.322000,0.048405
2.322500,0.060642
2.323000,0.071591
2.323500,0.075455
2.324000,0.079964
2.324500,0.086726
2.325000,0.088336
2.325500,0.078998
2.326000,0.062252
2.326500,0.038423
2.327000,0.021033
2.327500,0.003966
2.328000,0.008475
2.328500,0.021356
2.329000,0.031016
2.329500,0.049694
2.330000,0.061930
2.330500,0.074489
2.331000,0.088336
2.331500,0.096709
2.332000,0.093167
2.332500,0.096065
2.333000,0.098319
2.333500,0.093489
2.334000,0.090913
2.334500,0.084472
2.335000,0.073201
2.335500,0.056456
2.336000,0.040355
2.336500,0.033914
2.337000,0.028440
2.337500,0.009763
2.338000,0.015237
2.338500,0.042609
2.339000,0.066117
2.339500,0.083506
2.340000,0.088658
2.340500,0.092845
2.341000,0.096387
2.341500,0.091879
2.342000,0.087048
2.342500,0.073201
2.343000,0.053880
2.343500,0.032948
2.344000,0.016847
2.344500,0.002034
2.345000,0.018135
2.345500,0.028440
2.346000,0.042609
2.346500,0.059676
2.347000,0.066117
2.347500,0.073523
2.348000,0.078354
2.348500,0.084472
2.349000,0.091557
2.349500,0.094455
2.350000,0.091557
2.350500,0.089624
2.351000,0.085760
2.351500,0.078354
2.352000,0.068371
2.352500,0.050338
2.353000,0.028762
2.353500,0.003000
2.354000,0.024254
2.354500,0.060642
2.355000,0.086082
2.355500,0.098319
2.356000,0.107336
2.356500,0.109912
2.357000,0.112166
2.357500,0.104437
2.358000,0.099285
2.358500,0.087048
2.359000,0.082218
2.359500,0.067083
2.360000,0.046795
2.360500,0.030050
2.361000,0.010085
2.361500,0.007509
2.362000,0.015559
2.362500,0.026830
2.363000,0.040999
2.363500,0.051304
2.364000,0.057100
2.364500,0.062252
2.365000,0.069659
2.365500,0.077066
2.366000,0.081574
2.366500,0.078998
2.367000,0.074167
2.367500,0.071269
2.368000,0.059032
2.368500,0.048405
2.369000,0.031982
2.369500,0.013305
2.370000,0.007187
2.370500,0.019101
2.371000,0.034236
2.371500,0.048405
2.372000,0.057100
2.372500,0.066439
2.373000,0.071913
2.373500,0.076421
2.374000,0.078354
2.374500,0.085760
2.375000,0.085116
2.375500,0.078032
2.376000,0.063863
2.376500,0.047117
2.377000,0.032626
2.377500,0.022966
2.378000,0.015237
2.378500,0.000424
2.379000,0.019745
2.379500,0.040355
2.380000,0.056134
2.380500,0.071591
2.381000,0.074489
2.381500,0.077710
2.382000,0.078998
2.382500,0.078676
2.383000,0.079642
2.383500,0.076421
2.384000,0.069337
2.384500,0.055812
2.385000,0.037779
2.385500,0.021033
2.386000,0.006542
2.386500,0.009119
2.387000,0.021678
2.387500,0.038101
2.388000,0.049372
2.388500,0.061608
2.389000,0.068049
2.389500,0.078998
2.390000,0.087692
2.390500,0.093489
2.391000,0.095421
2.391500,0.091557
2.392000,0.086726
2.392500,0.078032
2.393000,0.063541
2.393500,0.048405
2.394000,0.038423
2.394500,0.022000
2.395000,0.005898
2.395500,0.006220
2.396000,0.022000
2.396500,0.036491
2.397000,0.046795
2.397500,0.052914
2.398000,0.063863
2.398500,0.070303
2.399000,0.078676
2.399500,0.082218
2.400000,0.082540
2.400500,0.088336
2.401000,0.087048
2.401500,0.072879
2.402000,0.048727
2.402500,0.020067
2.403000,-0.003762
2.403500,0.019745
2.404000,0.039711
2.404500,0.057422
2.405000,0.069659
2.405500,0.075455
2.406000,0.075133
2.406500,0.066761
2.407000,0.062897
2.407500,0.065473
2.408000,0.069981
2.408500,0.076421
2.409000,0.075133
2.409500,0.067083
2.410000,0.057744
2.410500,0.040355
2.411000,0.018457
2.411500,0.002356
2.412000,0.009441
2.412500,0.018779
2.413000,0.039067
2.413500,0.054202
2.414000,0.064829
2.414500,0.075777
2.415000,0.081896
2.415500,0.088658
2.416000,0.090913
2.416500,0.087048
2.417000,0.078032
2.417500,0.068693
2.418000,0.054846
2.418500,0.039067
2.419000,0.030694
2.419500,0.026186
2.420000,0.014593
2.420500,0.002034
2.421000,0.022322
2.421500,0.039389
2.422000,0.051948
2.422500,0.059032
2.423000,0.060642
2.423500,0.069337
2.424000,0.081252
2.424500,0.085116
2.425000,0.078032
2.425500,0.072557
2.426000,0.062574
2.426500,0.045185
2.427000,0.023288
2.427500,0.002356
2.428000,0.016525
2.428500,0.031982
2.429000,0.045507
2.429500,0.062574
2.430000,0.073845
2.430500,0.082218
2.431000,0.088658
2.431500,0.087370
2.432000,0.086404
2.432500,0.085438
2.433000,0.083828
2.433500,0.077388
2.434000,0.069981
2.434500,0.060320
2.435000,0.045829
2.435500,0.026830
2.436000,0.014271
2.436500,0.003644
2.437000,0.006220
2.437500,0.024254
2.438000,0.045829
2.438500,0.060642
2.439000,0.068371
2.439500,0.074489
2.440000,0.077388
2.440500,0.073523
2.441000,0.069015
2.441500,0.064829
2.442000,0.060642
2.442500,0.053236
2.443000,0.039711
2.443500,0.022000
2.444000,0.007509
2.444500,0.007509
2.445000,0.015559
2.445500,0.031016
2.446000,0.046795
2.446500,0.064185
2.447000,0.077710
2.447500,0.079642
2.448000,0.079642
2.448500,0.082540
2.449000,0.083506
2.449500,0.083184
2.450000,0.078998
2.450500,0.068371
2.451000,0.058388
2.451500,0.042609
2.452000,0.028762
2.452500,0.012983
2.453000,-0.004084
2.453500,0.024576
2.454000,0.050982
2.454500,0.076743
2.455000,0.087048
2.455500,0.091557
2.456000,0.083828
2.456500,0.080930
2.457000,0.076421
2.457500,0.076743
2.458000,0.073201
2.458500,0.063863
2.459000,0.055490
2.459500,0.046473
2.460000,0.037457
2.460500,0.024898
2.461000,0.013949
2.461500,0.004288
2.462000,0.017491
2.462500,0.033270
2.463000,0.050016
2.463500,0.062897
2.464000,0.075133
2.464500,0.081252
2.465000,0.081252
2.465500,0.084794
2.466000,0.080930
2.466500,0.065795
2.467000,0.047761
2.467500,0.034236
2.468000,0.023288
2.468500,0.016203
2.469000,0.006864
2.469500,-0.002474
2.470000,0.009763
2.470500,0.016847
2.471000,0.024576
2.471500,0.031660
2.472000,0.040999
2.472500,0.051948
2.473000,0.062252
2.473500,0.070947
2.474000,0.078676
2.474500,0.083828
2.475000,0.083506
2.475500,0.080286
2.476000,0.075777
2.476500,0.063219
2.477000,0.052914
2.477500,0.038101
2.478000,0.014271
2.478500,0.001712
2.479000,0.013949
2.479500,0.034236
2.480000,0.045829
2.480500,0.053236
2.481000,0.062574
2.481500,0.073845
2.482000,0.081252
2.482500,0.089624
2.483000,0.091879
2.483500,0.092845
2.484000,0.090913
2.484500,0.082540
2.485000,0.069981
2.485500,0.056778
2.486000,0.038101
2.486500,0.022966
2.487000,0.008153
2.487500,0.010407
2.488000,0.026830
2.488500,0.041965
2.489000,0.052592
2.489500,0.058066
2.490000,0.061930
2.490500,0.074167
2.491000,0.081896
2.491500,0.083184
2.492000,0.080930
2.492500,0.078676
2.493000,0.069981
2.493500,0.059354
2.494000,0.040999
2.494500,0.021356
2.495000,0.005576
2.495500,0.013305
2.496000,0.033914
2.496500,0.052592
2.497000,0.069015
2.497500,0.078998
2.498000,0.085438
2.498500,0.081252
2.499000,0.081574
2.499500,0.078998
2.500000,0.075455
2.500500,0.074167
2.501000,0.069015
2.501500,0.062574
2.502000,0.054846
2.502500,0.037457
2.503000,0.019101
2.503500,0.003000
2.504000,0.015559
2.504500,0.043575
2.505000,0.068371
2.505500,0.087692
2.506000,0.094455
2.506500,0.097353
2.507000,0.096065
2.507500,0.092201
2.508000,0.089624
2.508500,0.078354
2.509000,0.064185
2.509500,0.047439
2.510000,0.028118
2.510500,0.017491
2.511000,0.004288
2.511500,0.016525
2.512000,0.031338
2.512500,0.042609
2.513000,0.055812
2.513500,0.058388
2.514000,0.063219
2.514500,0.069015
2.515000,0.064829
2.515500,0.062252
2.516000,0.060642
2.516500,0.064185
2.517000,0.062574
2.517500,0.060320
2.518000,0.052914
2.518500,0.041965
2.519000,0.025542
2.519500,0.011051
2.520000,0.001390
2.520500,0.009763
2.521000,0.027796
2.521500,0.044541
2.522000,0.053880
2.522500,0.063863
2.523000,0.071591
2.523500,0.073845
2.524000,0.079320
2.524500,0.077388
2.525000,0.075133
2.525500,0.072235
2.526000,0.065473
2.526500,0.051304
2.527000,0.045507
2.527500,0.034558
2.528000,0.023610
2.528500,0.013949
2.529000,0.005898
2.529500,0.026186
2.530000,0.039067
2.530500,0.050660
2.531000,0.059676
2.531500,0.069659
2.532000,0.085116
2.532500,0.094455
2.533000,0.089624
2.533500,0.081896
2.534000,0.073201
2.534500,0.066439
2.535000,0.058710
2.535500,0.051948
2.536000,0.035525
2.536500,0.011695
2.537000,0.011695
2.537500,0.040999
2.538000,0.063541
2.538500,0.072557
2.539000,0.069337
2.539500,0.059998
2.540000,0.059032
2.540500,0.066439
2.541000,0.062897
2.541500,0.050660
2.542000,0.039389
2.542500,0.038745
2.543000,0.035203
2.543500,0.031982
2.544000,0.028118
2.544500,0.022322
2.545000,0.016847
2.545500,0.009441
2.546000,0.011051
2.546500,0.031016
2.547000,0.049050
2.547500,0.066761
2.548000,0.078998
2.548500,0.088014
2.549000,0.094455
2.549500,0.097997
2.550000,0.095743
2.550500,0.094455
2.551000,0.095743
2.551500,0.081896
2.552000,0.067083
2.552500,0.048083
2.553000,0.020389
2.553500,0.003000
2.554000,0.023288
2.554500,0.046151
2.555000,0.061286
2.555500,0.068693
2.556000,0.073523
2.556500,0.070303
2.557000,0.066761
2.557500,0.068049
2.558000,0.069015
2.558500,0.070947
2.559000,0.072235
2.559500,0.067405
2.560000,0.053236
2.560500,0.031338
2.561000,0.010407
2.561500,0.002034
2.562000,0.010729
2.562500,0.025864
2.563000,0.040033
2.563500,0.057744
2.564000,0.067405
2.564500,0.071591
2.565000,0.075133
2.565500,0.074489
2.566000,0.064185
2.566500,0.058388
2.567000,0.056134
2.567500,0.048083
2.568000,0.036813
2.568500,0.020067
2.569000,0.009441
2.569500,0.005254
2.570000,0.000424
2.570500,0.016525
2.571000,0.034236
2.571500,0.045829
2.572000,0.054202
2.572500,0.059998
2.573000,0.068693
2.573500,0.075133
2.574000,0.083506
2.574500,0.087370
2.575000,0.082862
2.575500,0.071591
2.576000,0.058066
2.576500,0.044541
2.577000,0.032948
2.577500,0.021678
2.578000,0.008153
2.578500,0.012339
2.579000,0.029084
2.579500,0.045507
2.580000,0.056456
2.580500,0.064507
2.581000,0.074167
2.581500,0.075777
2.582000,0.075777
2.582500,0.078676
2.583000,0.075133
2.583500,0.069337
2.584000,0.061286
2.584500,0.049050
2.585000,0.028118
2.585500,0.011695
2.586000,0.003000
2.586500,0.004932
2.587000,0.009441
2.587500,0.022644
2.588000,0.036813
2.588500,0.048405
2.589000,0.050660
2.589500,0.057744
2.590000,0.064185
2.590500,0.075455
2.591000,0.075455
2.591500,0.069337
2.592000,0.061608
2.592500,0.061608
2.593000,0.055490
2.593500,0.038745
2.594000,0.026830
2.594500,0.015559
2.595000,0.013627
2.595500,0.006220
2.596000,0.010729
2.596500,0.024576
2.597000,0.037779
2.597500,0.044863
2.598000,0.051626
2.598500,0.057422
2.599000,0.072235
2.599500,0.076421
2.600000,0.068693
2.600500,0.065473
2.601000,0.064507
2.601500,0.055168
2.602000,0.040677
2.602500,0.023288
2.603000,0.013627
2.603500,0.004932
2.604000,0.005576
2.604500,0.016847
2.605000,0.022000
2.605500,0.034558
2.606000,0.050016
2.606500,0.063219
2.607000,0.070625
2.607500,0.075455
2.608000,0.079964
2.608500,0.073201
2.609000,0.067405
2.609500,0.056456
2.610000,0.043575
2.610500,0.031016
2.611000,0.026508
2.611500,0.022000
2.612000,0.011695
2.612500,0.012339
2.613000,0.036813
2.613500,0.051304
2.614000,0.060964
2.614500,0.068049
2.615000,0.072557
2.615500,0.074811
2.616000,0.073845
2.616500,0.072557
2.617000,0.069337
2.617500,0.062574
2.618000,0.051948
2.618500,0.037457
2.619000,0.030694
2.619500,0.023288
2.620000,0.013305
2.620500,0.010085
2.621000,0.002678
2.621500,0.011373
2.622000,0.026508
2.622500,0.042287
2.623000,0.055168
2.623500,0.070303
2.624000,0.085116
2.624500,0.096709
2.625000,0.102827
2.625500,0.103471
2.626000,0.091879
2.626500,0.070625
2.627000,0.053236
2.627500,0.030694
2.628000,0.012983
2.628500,0.007187
2.629000,0.026186
2.629500,0.055812
2.630000,0.080608
2.630500,0.094455
2.631000,0.098641
2.631500,0.091879
2.632000,0.084472
2.632500,0.077388
2.633000,0.073523
2.633500,0.062897
2.634000,0.055168
2.634500,0.050982
2.635000,0.040677
2.635500,0.029406
2.636000,0.014915
2.636500,0.001068
2.637000,0.011373
2.637500,0.022000
2.638000,0.037457
2.638500,0.041965
2.639000,0.045507
2.639500,0.052270
2.640000,0.064507
2.640500,0.079642
2.641000,0.086726
2.641500,0.085760
2.642000,0.083828
2.642500,0.088014
2.643000,0.080608
2.643500,0.075777
2.644000,0.068693
2.644500,0.058710
2.645000,0.049372
2.645500,0.031338
2.646000,0.001712
2.646500,0.029728
2.647000,0.051304
2.647500,0.067405
2.648000,0.080608
2.648500,0.090913
2.649000,0.106692
2.649500,0.110234
2.650000,0.106048
2.650500,0.101861
2.651000,0.089624
2.651500,0.074489
2.652000,0.058066
2.652500,0.043897
2.653000,0.019745
2.653500,-0.004084
2.654000,0.025220
2.654500,0.045185
2.655000,0.059998
2.655500,0.077388
2.656000,0.087370
2.656500,0.091879
2.657000,0.093811
2.657500,0.081896
2.658000,0.070625
2.658500,0.065151
2.659000,0.060642
2.659500,0.053880
2.660000,0.043253
2.660500,0.027474
2.661000,0.015881
2.661500,0.004932
2.662000,0.003000
2.662500,0.019745
2.663000,0.030694
2.663500,0.043897
2.664000,0.055490
2.664500,0.067083
2.665000,0.073523
2.665500,0.083506
2.666000,0.088336
2.666500,0.087048
2.667000,0.083828
2.667500,0.082218
2.668000,0.067083
2.668500,0.047117
2.669000,0.027152
2.669500,0.005898
2.670000,0.014271
2.670500,0.035525
2.671000,0.055812
2.671500,0.070947
2.672000,0.084150
2.672500,0.096387
2.673000,0.096065
2.673500,0.087048
2.674000,0.077066
2.674500,0.059676
2.675000,0.050982
2.675500,0.048083
2.676000,0.048727
2.676500,0.051948
2.677000,0.044219
2.677500,0.034236
2.678000,0.023288
2.678500,0.011051
2.679000,0.009441
2.679500,0.043575
2.680000,0.070947
2.680500,0.080930
2.681000,0.086726
2.681500,0.086404
2.682000,0.089302
2.682500,0.096709
2.683000,0.100251
2.683500,0.096065
2.684000,0.087048
2.684500,0.069659
2.685000,0.052270
2.685500,0.031660
2.686000,0.014271
2.686500,0.002356
2.687000,0.006542
2.687500,0.017813
2.688000,0.027474
2.688500,0.035525
2.689000,0.041965
2.689500,0.050338
2.690000,0.049372
2.690500,0.051304
2.691000,0.058066
2.691500,0.055812
2.692000,0.055168
2.692500,0.055812
2.693000,0.055490
2.693500,0.048727
2.694000,0.037457
2.694500,0.030694
2.695000,0.020067
2.695500,0.012983
2.696000,0.002034
2.696500,0.012017
2.697000,0.027152
2.697500,0.046473
2.698000,0.057100
2.698500,0.068049
2.699000,0.080608
2.699500,0.093489
2.700000,0.097353
2.700500,0.092201
2.701000,0.084472
2.701500,0.067727
2.702000,0.045829
2.702500,0.027474
2.703000,0.010085
2.703500,0.002678
2.704000,0.017491
2.704500,0.038745
2.705000,0.059032
2.705500,0.070947
2.706000,0.081896
2.706500,0.083828
2.707000,0.083184
2.707500,0.083184
2.708000,0.084150
2.708500,0.078032
2.709000,0.067727
2.709500,0.045185
2.710000,0.027152
2.710500,0.020067
2.711000,0.021033
2.711500,0.021356
2.712000,0.013949
2.712500,0.004610
2.713000,0.023288
2.713500,0.037135
2.714000,0.050660
2.714500,0.059032
2.715000,0.067083
2.715500,0.081574
2.716000,0.092201
2.716500,0.097675
2.717000,0.091235
2.717500,0.085438
2.718000,0.075455
2.718500,0.062252
2.719000,0.051304
2.719500,0.034558
2.720000,0.017813
2.720500,0.001712
2.721000,0.016203
2.721500,0.038101
2.722000,0.065151
2.722500,0.081252
2.723000,0.092201
2.723500,0.099607
2.724000,0.108624
2.724500,0.107980
2.725000,0.102505
2.725500,0.090913
2.726000,0.073523
2.726500,0.050660
2.727000,0.035525
2.727500,0.028762
2.728000,0.015237
2.728500,0.003322
2.729000,0.008475
2.729500,0.019101
2.730000,0.036491
2.730500,0.056456
2.731000,0.073201
2.731500,0.084150
2.732000,0.093811
2.732500,0.091879
2.733000,0.085438
2.733500,0.075777
2.734000,0.065151
2.734500,0.050338
2.735000,0.035525
2.735500,0.025542
2.736000,0.017813
2.736500,0.021033
2.737000,0.022966
2.737500,0.014915
2.738000,-0.000220
2.738500,0.026508
2.739000,0.047439
2.739500,0.068371
2.740000,0.077066
2.740500,0.082218
2.741000,0.084794
2.741500,0.088336
2.742000,0.092845
2.742500,0.098963
2.743000,0.092845
2.743500,0.070303
2.744000,0.055490
2.744500,0.033270
2.745000,0.011695
2.745500,0.012017
2.746000,0.029406
2.746500,0.040677
2.747000,0.054524
2.747500,0.065473
2.748000,0.078676
2.748500,0.091879
2.749000,0.108624
2.749500,0.119251
2.750000,0.123759
2.750500,0.118929
2.751000,0.103149
2.751500,0.078354
2.752000,0.050016
2.752500,0.025542
2.753000,0.002678
2.753500,0.017491
2.754000,0.034880
2.754500,0.048405
2.755000,0.061930
2.755500,0.062252
2.756000,0.061608
2.756500,0.068693
2.757000,0.074811
2.757500,0.082862
2.758000,0.089946
2.758500,0.088980
2.759000,0.082862
2.759500,0.074489
2.760000,0.058710
2.760500,0.042931
2.761000,0.024898
2.761500,0.006542
2.762000,0.011695
2.762500,0.033914
2.763000,0.056778
2.763500,0.070947
2.764000,0.078998
2.764500,0.078998
2.765000,0.077388
2.765500,0.083506
2.766000,0.092845
2.766500,0.098319
2.767000,0.098641
2.767500,0.091557
2.768000,0.078998
2.768500,0.061930
2.769000,0.041643
2.769500,0.019745
2.770000,-0.003762
2.770500,0.024254
2.771000,0.047117
2.771500,0.069015
2.772000,0.079320
2.772500,0.078998
2.773000,0.076743
2.773500,0.071269
2.774000,0.071591
2.774500,0.066117
2.775000,0.060320
2.775500,0.053558
2.776000,0.051626
2.776500,0.046795
2.777000,0.042931
2.777500,0.040033
2.778000,0.034558
2.778500,0.022322
2.779000,0.004932
2.779500,0.030694
2.780000,0.045185
2.780500,0.051626
2.781000,0.062574
2.781500,0.066761
2.782000,0.069337
2.782500,0.068371
2.783000,0.062897
2.783500,0.056134
2.784000,0.055812
2.784500,0.049694
2.785000,0.041965
2.785500,0.033914
2.786000,0.024898
2.786500,0.014915
2.787000,0.004288
2.787500,0.003966
2.788000,0.024254
2.788500,0.044219
2.789000,0.059676
2.789500,0.067405
2.790000,0.070625
2.790500,0.071591
2.791000,0.078032
2.791500,0.078998
2.792000,0.072557
2.792500,0.070625
2.793000,0.069981
2.793500,0.057422
2.794000,0.043575
2.794500,0.028440
2.795000,0.007509
2.795500,0.018779
2.796000,0.042931
2.796500,0.061930
2.797000,0.074167
2.797500,0.082218
2.798000,0.088014
2.798500,0.093167
2.799000,0.100895
2.799500,0.102183
2.800000,0.098641
2.800500,0.094455
2.801000,0.087370
2.801500,0.074811
2.802000,0.058388
2.802500,0.037135
2.803000,0.014593
2.803500,0.010085
2.804000,0.031660
2.804500,0.053236
2.805000,0.072879
2.805500,0.087370
2.806000,0.094133
2.806500,0.098641
2.807000,0.104437
2.807500,0.110878
2.808000,0.107014
2.808500,0.097353
2.809000,0.085116
2.809500,0.068371
2.810000,0.048083
2.810500,0.033270
2.811000,0.019101
2.811500,0.004610
2.812000,0.014593
2.812500,0.037135
2.813000,0.051948
2.813500,0.058388
2.814000,0.054846
2.814500,0.062574
2.815000,0.068693
2.815500,0.077388
2.816000,0.095421
2.816500,0.119573
2.817000,0.122471
2.817500,0.108624
2.818000,0.085116
2.818500,0.063863
2.819000,0.044541
2.819500,0.019745
2.820000,0.003644
2.820500,0.005898
2.821000,0.017169
2.821500,0.033270
2.822000,0.049050
2.822500,0.065795
2.823000,0.081574
2.823500,0.090268
2.824000,0.102505
2.824500,0.105404
2.825000,0.101217
2.825500,0.087048
2.826000,0.069981
2.826500,0.054202
2.827000,0.040999
2.827500,0.029084
2.828000,0.018457
2.828500,0.004288
2.829000,0.011051
2.829500,0.016203
2.830000,0.022000
2.830500,0.031660
2.831000,0.049050
2.831500,0.062574
2.832000,0.069337
2.832500,0.081896
2.833000,0.090268
2.833500,0.100573
2.834000,0.100573
2.834500,0.092845
2.835000,0.069337
2.835500,0.048405
2.836000,0.026186
2.836500,0.016203
2.837000,0.009119
2.837500,0.000746
2.838000,0.022644
2.838500,0.041643
2.839000,0.059032
2.839500,0.074489
2.840000,0.082540
2.840500,0.086082
2.841000,0.087048
2.841500,0.085116
2.842000,0.081574
2.842500,0.071269
2.843000,0.052592
2.843500,0.037135
2.844000,0.023288
2.844500,0.014915
2.845000,0.008153
2.845500,0.003966
2.846000,0.012983
2.846500,0.028440
2.847000,0.036813
2.847500,0.052592
2.848000,0.069337
2.848500,0.079964
2.849000,0.089302
2.849500,0.097997
2.850000,0.104760
2.850500,0.105082
2.851000,0.096065
2.851500,0.074811
2.852000,0.051304
2.852500,0.028762
2.853000,0.007831
2.853500,0.010729
2.854000,0.024576
2.854500,0.041321
2.855000,0.050660
2.855500,0.059032
2.856000,0.068049
2.856500,0.083506
2.857000,0.095743
2.857500,0.104760
2.858000,0.106048
2.858500,0.099607
2.859000,0.094133
2.859500,0.082218
2.860000,0.062897
2.860500,0.038101
2.861000,0.015559
2.861500,0.005576
2.862000,0.026186
2.862500,0.048083
2.863000,0.071269
2.863500,0.092201
2.864000,0.105726
2.864500,0.110878
2.865000,0.113454
2.865500,0.116996
2.866000,0.113132
2.866500,0.105082
2.867000,0.093167
2.867500,0.073201
2.868000,0.060964
2.868500,0.040999
2.869000,0.013949
2.869500,0.011051
2.870000,0.037779
2.870500,0.053558
2.871000,0.064507
2.871500,0.066439
2.872000,0.067083
2.872500,0.070947
2.873000,0.079964
2.873500,0.083506
2.874000,0.093489
2.874500,0.093811
2.875000,0.084472
2.875500,0.072235
2.876000,0.062252
2.876500,0.048405
2.877000,0.036813
2.877500,0.029084
2.878000,0.018779
2.878500,0.010407
2.879000,0.002356
2.879500,0.010085
2.880000,0.017813
2.880500,0.025864
2.881000,0.035525
2.881500,0.048405
2.882000,0.062252
2.882500,0.070625
2.883000,0.074489
2.883500,0.074811
2.884000,0.076421
2.884500,0.072235
2.885000,0.063219
2.885500,0.050016
2.886000,0.035847
2.886500,0.025542
2.887000,0.013305
2.887500,-0.002152
2.888000,0.021033
2.888500,0.034558
2.889000,0.044219
2.889500,0.052914
2.890000,0.049694
2.890500,0.049372
2.891000,0.053558
2.891500,0.056778
2.892000,0.070625
2.892500,0.085438
2.893000,0.093167
2.893500,0.086404
2.894000,0.070947
2.894500,0.047439
2.895000,0.018779
2.895500,0.017491
2.896000,0.047117
2.896500,0.066439
2.897000,0.075455
2.897500,0.073845
2.898000,0.074167
2.898500,0.073523
2.899000,0.077388
2.899500,0.082862
2.900000,0.084472
2.900500,0.080286
2.901000,0.071269
2.901500,0.061286
2.902000,0.046151
2.902500,0.033270
2.903000,0.019423
2.903500,0.012339
2.904000,0.002356
2.904500,0.009763
2.905000,0.030050
2.905500,0.052270
2.906000,0.070303
2.906500,0.080608
2.907000,0.085760
2.907500,0.088336
2.908000,0.090590
2.908500,0.088014
2.909000,0.074811
2.909500,0.066761
2.910000,0.054202
2.910500,0.044541
2.911000,0.028118
2.911500,0.008797
2.912000,0.005898
2.912500,0.025542
2.913000,0.043253
2.913500,0.057744
2.914000,0.066761
2.914500,0.074489
2.915000,0.077710
2.915500,0.090913
2.916000,0.096709
2.916500,0.097675
2.917000,0.094455
2.917500,0.084472
2.918000,0.071591
2.918500,0.057744
2.919000,0.042609
2.919500,0.025864
2.920000,0.010085
2.920500,-0.004406
2.921000,0.022322
2.921500,0.043253
2.922000,0.062252
2.922500,0.074811
2.923000,0.092201
2.923500,0.099285
2.924000,0.106370
2.924500,0.107336
2.925000,0.099285
2.925500,0.089302
2.926000,0.075133
2.926500,0.054524
2.927000,0.034880
2.927500,0.018135
2.928000,0.009441
2.928500,0.007187
2.929000,0.027796
2.929500,0.050338
2.930000,0.067405
2.930500,0.075455
2.931000,0.079964
2.931500,0.083184
2.932000,0.084150
2.932500,0.096709
2.933000,0.102827
2.933500,0.092845
2.934000,0.080286
2.934500,0.067727
2.935000,0.047761
2.935500,0.024254
2.936000,-0.001830
2.936500,0.019101
2.937000,0.034236
2.937500,0.040355
2.938000,0.049694
2.938500,0.056778
2.939000,0.062574
2.939500,0.083506
2.940000,0.097997
2.940500,0.104115
2.941000,0.109268
2.941500,0.107014
2.942000,0.097031
2.942500,0.085760
2.943000,0.068371
2.943500,0.051948
2.944000,0.033914
2.944500,0.019101
2.945000,0.003322
2.945500,0.011051
2.946000,0.028118
2.946500,0.044541
2.947000,0.058388
2.947500,0.069337
2.948000,0.076421
2.948500,0.078676
2.949000,0.085760
2.949500,0.089624
2.950000,0.086726
2.950500,0.078998
2.951000,0.070303
2.951500,0.056778
2.952000,0.046795
2.952500,0.039067
2.953000,0.027796
2.953500,0.019745
2.954000,0.005254
2.954500,0.017169
2.955000,0.040355
2.955500,0.059676
2.956000,0.073201
2.956500,0.081252
2.957000,0.090268
2.957500,0.098319
2.958000,0.100895
2.958500,0.102183
2.959000,0.100573
2.959500,0.090913
2.960000,0.077388
2.960500,0.060964
2.961000,0.042931
2.961500,0.026830
2.962000,0.008153
2.962500,0.016525
2.963000,0.045829
2.963500,0.067083
2.964000,0.079964
2.964500,0.093167
2.965000,0.097353
2.965500,0.097675
2.966000,0.097031
2.966500,0.090590
2.967000,0.086726
2.967500,0.083828
2.968000,0.073845
2.968500,0.059676
2.969000,0.049050
2.969500,0.043575
2.970000,0.031982
2.970500,0.014271
2.971000,0.009119
2.971500,0.035203
2.972000,0.057100
2.972500,0.070625
2.973000,0.081574
2.973500,0.087370
2.974000,0.095421
2.974500,0.093489
2.975000,0.085438
2.975500,0.074167
2.976000,0.063219
2.976500,0.045507
2.977000,0.023932
2.977500,0.006864
2.978000,0.005576
2.978500,0.014271
2.979000,0.017813
2.979500,0.028440
2.980000,0.037457
2.980500,0.052914
2.981000,0.068371
2.981500,0.077066
2.982000,0.079964
2.982500,0.081896
2.983000,0.082540
2.983500,0.081252
2.984000,0.077388
2.984500,0.066761
2.985000,0.052914
2.985500,0.037779
2.986000,0.027474
2.986500,0.013949
2.987000,-0.002474
2.987500,0.018779
2.988000,0.038745
2.988500,0.053558
2.989000,0.064185
2.989500,0.071591
2.990000,0.073201
2.990500,0.078354
2.991000,0.080930
2.991500,0.077388
2.992000,0.068693
2.992500,0.060320
2.993000,0.050338
2.993500,0.037135
2.994000,0.021678
2.994500,0.008797
2.995000,0.002678
2.995500,0.006542
2.996000,0.012339
2.996500,0.023288
2.997000,0.038745
2.997500,0.048083
2.998000,0.051948
2.998500,0.054846
2.999000,0.063541
2.999500,0.071269
3.000000,0.069981
3.000500,0.067727
3.001000,0.064829
3.001500,0.050660
3.002000,0.038745
3.002500,0.029084
3.003000,0.014593
3.003500,0.010729
3.004000,-0.003118
3.004500,0.022322
3.005000,0.040033
3.005500,0.052270
3.006000,0.061930
3.006500,0.073845
3.007000,0.088658
3.007500,0.098319
3.008000,0.094455
3.008500,0.085760
3.009000,0.078676
3.009500,0.069337
3.010000,0.052592
3.010500,0.031016
3.011000,0.013627
3.011500,0.007509
3.012000,0.007187
3.012500,0.005576
3.013000,0.021033
3.013500,0.034880
3.014000,0.046151
3.014500,0.052592
3.015000,0.061930
3.015500,0.077388
3.016000,0.090268
3.016500,0.097031
3.017000,0.100895
3.017500,0.094777
3.018000,0.075455
3.018500,0.055812
3.019000,0.035203
3.019500,0.019745
3.020000,0.004288
3.020500,0.011695
3.021000,0.031016
3.021500,0.048083
3.022000,0.058066
3.022500,0.062897
3.023000,0.067405
3.023500,0.070303
3.024000,0.071591
3.024500,0.069337
3.025000,0.064829
3.025500,0.061608
3.026000,0.056134
3.026500,0.044863
3.027000,0.034880
3.027500,0.022966
3.028000,0.012339
3.028500,0.000424
3.029000,0.012017
3.029500,0.030694
3.030000,0.047439
3.030500,0.060320
3.031000,0.069337
3.031500,0.072879
3.032000,0.078032
3.032500,0.081896
3.033000,0.089302
3.033500,0.089624
3.034000,0.085116
3.034500,0.073845
3.035000,0.057744
3.035500,0.040355
3.036000,0.022322
3.036500,0.004932
3.037000,0.011695
3.037500,0.024254
3.038000,0.044219
3.038500,0.059032
3.039000,0.070625
3.039500,0.077710
3.040000,0.078354
3.040500,0.082862
3.041000,0.087370
3.041500,0.085760
3.042000,0.079642
3.042500,0.072557
3.043000,0.058710
3.043500,0.046151
3.044000,0.033914
3.044500,0.021356
3.045000,0.013305
3.045500,0.001712
3.046000,0.019423
3.046500,0.042287
3.047000,0.063219
3.047500,0.079964
3.048000,0.096387
3.048500,0.101217
3.049000,0.112488
3.049500,0.115708
3.050000,0.106048
3.050500,0.087048
3.051000,0.067727
3.051500,0.054202
3.052000,0.041643
3.052500,0.027474
3.053000,0.017169
3.053500,0.003966
3.054000,0.012983
3.054500,0.027474
3.055000,0.034880
3.055500,0.050660
3.056000,0.073201
3.056500,0.086726
3.057000,0.103149
3.057500,0.112810
3.058000,0.114420
3.058500,0.109912
3.059000,0.100251
3.059500,0.086404
3.060000,0.066439
3.060500,0.052914
3.061000,0.036813
3.061500,0.024576
3.062000,0.006864
3.062500,0.016203
3.063000,0.035847
3.063500,0.055490
3.064000,0.068693
3.064500,0.077388
3.065000,0.083828
3.065500,0.089946
3.066000,0.097031
3.066500,0.099285
3.067000,0.095421
3.067500,0.084472
3.068000,0.070303
3.068500,0.054524
3.069000,0.037457
3.069500,0.020067
3.070000,0.005576
3.070500,0.012661
3.071000,0.035203
3.071500,0.054524
3.072000,0.073845
3.072500,0.085438
3.073000,0.093489
3.073500,0.100573
3.074000,0.101217
3.074500,0.092201
3.075000,0.085760
3.075500,0.077388
3.076000,0.061930
3.076500,0.042287
3.077000,0.031982
3.077500,0.014271
3.078000,0.002356
3.078500,0.013305
3.079000,0.026508
3.079500,0.050982
3.080000,0.075455
3.080500,0.088336
3.081000,0.099607
3.081500,0.103793
3.082000,0.101539
3.082500,0.097031
3.083000,0.087692
3.083500,0.072557
3.084000,0.056134
3.084500,0.043253
3.085000,0.028118
3.085500,0.013949
3.086000,0.008153
3.086500,0.004610
3.087000,-0.003762
3.087500,0.015559
3.088000,0.037779
3.088500,0.057422
3.089000,0.070625
3.089500,0.078032
3.090000,0.077710
3.090500,0.082218
3.091000,0.081574
3.091500,0.077710
3.092000,0.071591
3.092500,0.065795
3.093000,0.055490
3.093500,0.039389
3.094000,0.024576
3.094500,0.013627
3.095000,0.003966
3.095500,0.017813
3.096000,0.032626
3.096500,0.050016
3.097000,0.060964
3.097500,0.074167
3.098000,0.086726
3.098500,0.087692
3.099000,0.085116
3.099500,0.080286
3.100000,0.073845
3.100500,0.063863
3.101000,0.052592
3.101500,0.040355
3.102000,0.026508
3.102500,0.018779
3.103000,0.005254
3.103500,-0.002152
3.104000,0.011373
3.104500,0.028440
3.105000,0.040677
3.105500,0.045507
3.106000,0.051626
3.106500,0.056778
3.107000,0.061930
3.107500,0.072879
3.108000,0.073201
3.108500,0.068049
3.109000,0.066117
3.109500,0.061930
3.110000,0.051626
3.110500,0.035525
3.111000,0.025220
3.111500,0.016203
3.112000,0.005898
3.112500,0.012983
3.113000,0.032304
3.113500,0.045185
3.114000,0.055490
3.114500,0.071591
3.115000,0.086404
3.115500,0.094455
3.116000,0.093811
3.116500,0.082540
3.117000,0.069337
3.117500,0.052914
3.118000,0.030050
3.118500,0.017169
3.119000,0.002034
3.119500,0.009441
3.120000,0.022644
3.120500,0.036491
3.121000,0.042931
3.121500,0.055812
3.122000,0.064829
3.122500,0.074167
3.123000,0.083828
3.123500,0.087370
3.124000,0.091879
3.124500,0.087370
3.125000,0.079320
3.125500,0.069337
3.126000,0.058066
3.126500,0.047439
3.127000,0.033270
3.127500,0.016847
3.128000,0.002678
3.128500,0.016203
3.129000,0.029406
3.129500,0.053236
3.130000,0.070625
3.130500,0.088658
3.131000,0.098641
3.131500,0.099607
3.132000,0.092201
3.132500,0.089302
3.133000,0.085438
3.133500,0.081896
3.134000,0.078032
3.134500,0.073845
3.135000,0.064829
3.135500,0.060642
3.136000,0.057744
3.136500,0.035847
3.137000,0.005576
3.137500,0.024576
3.138000,0.047761
3.138500,0.057744
3.139000,0.061608
3.139500,0.070303
3.140000,0.074167
3.140500,0.080286
3.141000,0.086726
3.141500,0.093167
3.142000,0.096709
3.142500,0.098963
3.143000,0.092845
3.143500,0.078032
