LabVIEW Measurement,
Writer_Version,2
Reader_Version,2
Separator,Comma
Decimal_Separator,.
Multi_Headings,Yes
X_Columns,One
Time_Pref,Absolute
Operator,labuser
Date,2022/03/27
Time,18:19:25.4258352499427140689
***End_of_Header***,
,
Channels,1,
Samples,20000,
Date,2022/03/27,
Time,18:19:25.4258352499427140689,
Y_Unit_Label,Volts,
X_Dimension,Time,
X0,0.0000000000000000E+0,
Delta_X,0.000500,
***End_of_Header***,,
X_Value,Voltage,Comment
0.000000,0.058710
0.000500,0.062252
0.001000,0.056134
0.001500,0.050660
0.002000,0.045507
0.002500,0.038423
0.003000,0.027796
0.003500,0.018457
0.004000,0.014271
0.004500,0.007831
0.005000,0.010085
0.005500,0.026508
0.006000,0.031016
0.006500,0.042287
0.007000,0.051304
0.007500,0.054846
0.008000,0.062252
0.008500,0.065151
0.009000,0.065795
0.009500,0.064829
0.010000,0.056778
0.010500,0.047761
0.011000,0.038101
0.011500,0.031338
0.012000,0.022322
0.012500,0.011695
0.013000,-0.001830
0.013500,0.015559
0.014000,0.029406
0.014500,0.038745
0.015000,0.044541
0.015500,0.049050
0.016000,0.055812
0.016500,0.059998
0.017000,0.062574
0.017500,0.060964
0.018000,0.059354
0.018500,0.051304
0.019000,0.040033
0.019500,0.029728
0.020000,0.021678
0.020500,0.012661
0.021000,0.005254
0.021500,0.009441
0.022000,0.022644
0.022500,0.038423
0.023000,0.047439
0.023500,0.053558
0.024000,0.055168
0.024500,0.058388
0.025000,0.059354
0.025500,0.059032
0.026000,0.056456
0.026500,0.051948
0.027000,0.043575
0.027500,0.040033
0.028000,0.032304
0.028500,0.023288
0.029000,0.011051
0.029500,0.003000
0.030000,0.012339
0.030500,0.027796
0.031000,0.038101
0.031500,0.048727
0.032000,0.055168
0.032500,0.059998
0.033000,0.062574
0.033500,0.064185
0.034000,0.058710
0.034500,0.053558
0.035000,0.048405
0.035500,0.045829
0.036000,0.040355
0.036500,0.032626
0.037000,0.022000
0.037500,0.011695
0.038000,0.004610
0.038500,0.016203
0.039000,0.029084
0.039500,0.038423
0.040000,0.045185
0.040500,0.050338
0.041000,0.054846
0.041500,0.061608
0.042000,0.063541
0.042500,0.059354
0.043000,0.058066
0.043500,0.053880
0.044000,0.047439
0.044500,0.042609
0.045000,0.036813
0.045500,0.026508
0.046000,0.017491
0.046500,0.001712
0.047000,0.017491
0.047500,0.038423
0.048000,0.052270
0.048500,0.059998
0.049000,0.064185
0.049500,0.072557
0.050000,0.073845
0.050500,0.071269
0.051000,0.058066
0.051500,0.047439
0.052000,0.032304
0.052500,0.020067
0.053000,0.010407
0.053500,0.003966
0.054000,0.001068
0.054500,0.005254
0.055000,0.016847
0.055500,0.029084
0.056000,0.032948
0.056500,0.038101
0.057000,0.043575
0.057500,0.047761
0.058000,0.056778
0.058500,0.062252
0.059000,0.064829
0.059500,0.061930
0.060000,0.055168
0.060500,0.043253
0.061000,0.033914
0.061500,0.022966
0.062000,0.013627
0.062500,0.006220
0.063000,-0.002474
0.063500,0.018135
0.064000,0.029084
0.064500,0.038101
0.065000,0.047439
0.065500,0.052270
0.066000,0.053558
0.066500,0.058388
0.067000,0.060642
0.067500,0.059354
0.068000,0.055490
0.068500,0.050016
0.069000,0.040033
0.069500,0.029084
0.070000,0.018779
0.070500,0.010729
0.071000,0.003644
0.071500,0.016525
0.072000,0.031982
0.072500,0.043575
0.073000,0.047761
0.073500,0.052270
0.074000,0.055812
0.074500,0.062574
0.075000,0.062574
0.075500,0.059998
0.076000,0.056134
0.076500,0.052270
0.077000,0.044863
0.077500,0.036169
0.078000,0.027474
0.078500,0.017813
0.079000,0.009119
0.079500,0.000746
0.080000,0.015559
0.080500,0.025864
0.081000,0.032304
0.081500,0.041643
0.082000,0.049050
0.082500,0.053558
0.083000,0.056134
0.083500,0.058388
0.084000,0.055490
0.084500,0.054202
0.085000,0.050338
0.085500,0.040999
0.086000,0.030050
0.086500,0.021033
0.087000,0.013949
0.087500,0.006864
0.088000,0.007509
0.088500,0.020389
0.089000,0.032626
0.089500,0.041643
0.090000,0.049694
0.090500,0.051626
0.091000,0.057100
0.091500,0.059998
0.092000,0.059032
0.092500,0.059676
0.093000,0.059998
0.093500,0.054202
0.094000,0.049050
0.094500,0.034558
0.095000,0.020711
0.095500,0.009763
0.096000,-0.002152
0.096500,0.015881
0.097000,0.030694
0.097500,0.040677
0.098000,0.047117
0.098500,0.053236
0.099000,0.053880
0.099500,0.055812
0.100000,0.060964
0.100500,0.061286
0.101000,0.061286
0.101500,0.056778
0.102000,0.048405
0.102500,0.035203
0.103000,0.022322
0.103500,0.015559
0.104000,0.007187
0.104500,0.003322
0.105000,0.013305
0.105500,0.026830
0.106000,0.037457
0.106500,0.048083
0.107000,0.053880
0.107500,0.056456
0.108000,0.059676
0.108500,0.057744
0.109000,0.059354
0.109500,0.057100
0.110000,0.052592
0.110500,0.043897
0.111000,0.031982
0.111500,0.020389
0.112000,0.009119
0.112500,-0.002152
0.113000,0.011373
0.113500,0.024254
0.114000,0.031660
0.114500,0.035525
0.115000,0.043897
0.115500,0.048405
0.116000,0.053558
0.116500,0.057100
0.117000,0.055812
0.117500,0.050016
0.118000,0.052270
0.118500,0.046795
0.119000,0.037135
0.119500,0.028762
0.120000,0.019101
0.120500,0.009763
0.121000,0.003644
0.121500,0.014915
0.122000,0.027474
0.122500,0.036169
0.123000,0.043897
0.123500,0.052914
0.124000,0.057422
0.124500,0.060964
0.125000,0.060964
0.125500,0.058066
0.126000,0.054846
0.126500,0.049372
0.127000,0.039067
0.127500,0.032948
0.128000,0.024898
0.128500,0.018457
0.129000,0.008153
0.129500,0.003644
0.130000,0.011695
0.130500,0.026830
0.131000,0.040033
0.131500,0.050016
0.132000,0.057422
0.132500,0.057422
0.133000,0.059998
0.133500,0.061608
0.134000,0.057422
0.134500,0.054202
0.135000,0.052914
0.135500,0.044863
0.136000,0.032304
0.136500,0.016847
0.137000,0.002678
0.137500,0.009441
0.138000,0.014593
0.138500,0.024898
0.139000,0.040033
0.139500,0.047761
0.140000,0.048083
0.140500,0.050016
0.141000,0.050982
0.141500,0.053236
0.142000,0.055490
0.142500,0.054202
0.143000,0.051948
0.143500,0.047117
0.144000,0.039389
0.144500,0.032304
0.145000,0.023932
0.145500,0.015881
0.146000,0.008153
0.146500,0.006220
0.147000,0.021678
0.147500,0.032948
0.148000,0.040999
0.148500,0.046151
0.149000,0.049050
0.149500,0.057744
0.150000,0.059676
0.150500,0.062574
0.151000,0.063219
0.151500,0.058388
0.152000,0.048727
0.152500,0.040033
0.153000,0.029728
0.153500,0.020067
0.154000,0.008475
0.154500,0.002356
0.155000,0.015559
0.155500,0.028762
0.156000,0.039067
0.156500,0.049372
0.157000,0.051626
0.157500,0.057100
0.158000,0.066117
0.158500,0.068049
0.159000,0.067405
0.159500,0.067083
0.160000,0.062252
0.160500,0.050660
0.161000,0.038101
0.161500,0.024576
0.162000,0.014593
0.162500,0.001712
0.163000,0.009119
0.163500,0.023932
0.164000,0.039711
0.164500,0.046151
0.165000,0.049372
0.165500,0.051626
0.166000,0.050016
0.166500,0.045507
0.167000,0.048727
0.167500,0.050338
0.168000,0.052592
0.168500,0.049372
0.169000,0.041965
0.169500,0.032626
0.170000,0.022966
0.170500,0.012339
0.171000,0.003322
0.171500,0.009763
0.172000,0.022966
0.172500,0.034558
0.173000,0.042609
0.173500,0.050982
0.174000,0.056778
0.174500,0.065151
0.175000,0.064829
0.175500,0.061286
0.176000,0.058388
0.176500,0.055490
0.177000,0.044863
0.177500,0.035847
0.178000,0.022644
0.178500,0.011051
0.179000,-0.000542
0.179500,0.012017
0.180000,0.024576
0.180500,0.033270
0.181000,0.037779
0.181500,0.042609
0.182000,0.048083
0.182500,0.049050
0.183000,0.052592
0.183500,0.059354
0.184000,0.060642
0.184500,0.057422
0.185000,0.053236
0.185500,0.042931
0.186000,0.030050
0.186500,0.026830
0.187000,0.018779
0.187500,0.008153
0.188000,0.003966
0.188500,0.018135
0.189000,0.029084
0.189500,0.036491
0.190000,0.045507
0.190500,0.054524
0.191000,0.058710
0.191500,0.061930
0.192000,0.061286
0.192500,0.058710
0.193000,0.051626
0.193500,0.041965
0.194000,0.035203
0.194500,0.026508
0.195000,0.018457
0.195500,0.010729
0.196000,0.002678
0.196500,0.008153
0.197000,0.024898
0.197500,0.037779
0.198000,0.042931
0.198500,0.050982
0.199000,0.052270
0.199500,0.058388
0.200000,0.059676
0.200500,0.060964
0.201000,0.059998
0.201500,0.055812
0.202000,0.045507
0.202500,0.037779
0.203000,0.027796
0.203500,0.020389
0.204000,0.012017
0.204500,0.004288
0.205000,0.017491
0.205500,0.031016
0.206000,0.042287
0.206500,0.053236
0.207000,0.062574
0.207500,0.061930
0.208000,0.062897
0.208500,0.063219
0.209000,0.061608
0.209500,0.059032
0.210000,0.055168
0.210500,0.044863
0.211000,0.034880
0.211500,0.026830
0.212000,0.016203
0.212500,0.003322
0.213000,0.006864
0.213500,0.022000
0.214000,0.031982
0.214500,0.037779
0.215000,0.043253
0.215500,0.050338
0.216000,0.056778
0.216500,0.059676
0.217000,0.061608
0.217500,0.059676
0.218000,0.057100
0.218500,0.050982
0.219000,0.041965
0.219500,0.031982
0.220000,0.022000
0.220500,0.012661
0.221000,0.002034
0.221500,0.012661
0.222000,0.027474
0.222500,0.036813
0.223000,0.043575
0.223500,0.048405
0.224000,0.050982
0.224500,0.057100
0.225000,0.059998
0.225500,0.058710
0.226000,0.054846
0.226500,0.052270
0.227000,0.043897
0.227500,0.033592
0.228000,0.024898
0.228500,0.013305
0.229000,0.006542
0.229500,0.000746
0.230000,0.013949
0.230500,0.026186
0.231000,0.032626
0.231500,0.039389
0.232000,0.046473
0.232500,0.051626
0.233000,0.057100
0.233500,0.059032
0.234000,0.057422
0.234500,0.058710
0.235000,0.051948
0.235500,0.044541
0.236000,0.032626
0.236500,0.018135
0.237000,0.005898
0.237500,0.001712
0.238000,0.007509
0.238500,0.018457
0.239000,0.031016
0.239500,0.038745
0.240000,0.051948
0.240500,0.054846
0.241000,0.058710
0.241500,0.059032
0.242000,0.059032
0.242500,0.059998
0.243000,0.059032
0.243500,0.055490
0.244000,0.047439
0.244500,0.037457
0.245000,0.026186
0.245500,0.015237
0.246000,0.002034
0.246500,0.009119
0.247000,0.023288
0.247500,0.036813
0.248000,0.045829
0.248500,0.054846
0.249000,0.059354
0.249500,0.069015
0.250000,0.072879
0.250500,0.073523
0.251000,0.069337
0.251500,0.060642
0.252000,0.046795
0.252500,0.033914
0.253000,0.019423
0.253500,0.010407
0.254000,0.003322
0.254500,0.009763
0.255000,0.016203
0.255500,0.031016
0.256000,0.039711
0.256500,0.047117
0.257000,0.051626
0.257500,0.049372
0.258000,0.049694
0.258500,0.053558
0.259000,0.059676
0.259500,0.061286
0.260000,0.059354
0.260500,0.052592
0.261000,0.044863
0.261500,0.031338
0.262000,0.020067
0.262500,0.005576
0.263000,0.007187
0.263500,0.025542
0.264000,0.037135
0.264500,0.045185
0.265000,0.052592
0.265500,0.056778
0.266000,0.058066
0.266500,0.060642
0.267000,0.061286
0.267500,0.056778
0.268000,0.055168
0.268500,0.048727
0.269000,0.040999
0.269500,0.030372
0.270000,0.022000
0.270500,0.010407
0.271000,0.002356
0.271500,0.011695
0.272000,0.025220
0.272500,0.040677
0.273000,0.044219
0.273500,0.050016
0.274000,0.051304
0.274500,0.055490
0.275000,0.058388
0.275500,0.058066
0.276000,0.056134
0.276500,0.049694
0.277000,0.040033
0.277500,0.034236
0.278000,0.026830
0.278500,0.016847
0.279000,0.007831
0.279500,-0.000220
0.280000,0.013627
0.280500,0.026186
0.281000,0.037135
0.281500,0.043575
0.282000,0.047439
0.282500,0.050660
0.283000,0.057422
0.283500,0.059032
0.284000,0.056778
0.284500,0.055490
0.285000,0.050982
0.285500,0.042931
0.286000,0.032626
0.286500,0.022644
0.287000,0.014271
0.287500,0.005898
0.288000,0.003322
0.288500,0.018457
0.289000,0.033270
0.289500,0.045507
0.290000,0.054846
0.290500,0.059354
0.291000,0.062897
0.291500,0.063541
0.292000,0.066761
0.292500,0.065473
0.293000,0.064185
0.293500,0.055490
0.294000,0.042931
0.294500,0.032304
0.295000,0.020711
0.295500,0.009119
0.296000,0.000102
0.296500,0.011695
0.297000,0.027152
0.297500,0.040033
0.298000,0.048083
0.298500,0.053880
0.299000,0.059354
0.299500,0.061608
0.300000,0.061286
0.300500,0.060964
0.301000,0.057744
0.301500,0.054846
0.302000,0.049050
0.302500,0.035847
0.303000,0.027152
0.303500,0.016847
0.304000,0.006542
0.304500,0.004932
0.305000,0.017491
0.305500,0.030694
0.306000,0.041965
0.306500,0.051304
0.307000,0.057422
0.307500,0.058388
0.308000,0.064507
0.308500,0.067727
0.309000,0.066117
0.309500,0.062252
0.310000,0.056778
0.310500,0.046151
0.311000,0.037779
0.311500,0.027796
0.312000,0.017169
0.312500,0.007187
0.313000,0.005254
0.313500,0.018779
0.314000,0.030372
0.314500,0.039067
0.315000,0.046795
0.315500,0.052914
0.316000,0.059676
0.316500,0.067083
0.317000,0.072879
0.317500,0.071913
0.318000,0.064507
0.318500,0.056456
0.319000,0.044219
0.319500,0.031660
0.320000,0.022644
0.320500,0.009441
0.321000,0.002678
0.321500,0.011695
0.322000,0.027152
0.322500,0.042931
0.323000,0.050016
0.323500,0.059032
0.324000,0.062897
0.324500,0.067727
0.325000,0.069015
0.325500,0.067405
0.326000,0.063541
0.326500,0.056456
0.327000,0.045829
0.327500,0.033914
0.328000,0.021678
0.328500,0.011695
0.329000,0.005898
0.329500,0.004932
0.330000,0.021033
0.330500,0.033914
0.331000,0.043575
0.331500,0.048083
0.332000,0.054524
0.332500,0.057744
0.333000,0.062574
0.333500,0.065795
0.334000,0.064829
0.334500,0.058710
0.335000,0.052592
0.335500,0.041643
0.336000,0.032304
0.336500,0.020389
0.337000,0.012017
0.337500,0.003644
0.338000,0.009441
0.338500,0.023932
0.339000,0.037779
0.339500,0.046795
0.340000,0.054524
0.340500,0.055812
0.341000,0.058388
0.341500,0.064829
0.342000,0.065473
0.342500,0.065795
0.343000,0.061930
0.343500,0.051304
0.344000,0.040999
0.344500,0.028118
0.345000,0.019423
0.345500,0.009763
0.346000,-0.002474
0.346500,0.012983
0.347000,0.024576
0.347500,0.034236
0.348000,0.041321
0.348500,0.049050
0.349000,0.051626
0.349500,0.053236
0.350000,0.052592
0.350500,0.055490
0.351000,0.057100
0.351500,0.059998
0.352000,0.052270
0.352500,0.039067
0.353000,0.023932
0.353500,0.014593
0.354000,0.003966
0.354500,0.009119
0.355000,0.020067
0.355500,0.034880
0.356000,0.040999
0.356500,0.047761
0.357000,0.051948
0.357500,0.055490
0.358000,0.057744
0.358500,0.061608
0.359000,0.062252
0.359500,0.058710
0.360000,0.054202
0.360500,0.043897
0.361000,0.035203
0.361500,0.023288
0.362000,0.012983
0.362500,0.000102
0.363000,0.011051
0.363500,0.022644
0.364000,0.033270
0.364500,0.043253
0.365000,0.052592
0.365500,0.057744
0.366000,0.063863
0.366500,0.068049
0.367000,0.066439
0.367500,0.062897
0.368000,0.059032
0.368500,0.048727
0.369000,0.033914
0.369500,0.020389
0.370000,0.011051
0.370500,0.002678
0.371000,0.010407
0.371500,0.024254
0.372000,0.036813
0.372500,0.046473
0.373000,0.056134
0.373500,0.059354
0.374000,0.057744
0.374500,0.059354
0.375000,0.058710
0.375500,0.057100
0.376000,0.055490
0.376500,0.045829
0.377000,0.039067
0.377500,0.032626
0.378000,0.025542
0.378500,0.018135
0.379000,0.006864
0.379500,0.000102
0.380000,0.016847
0.380500,0.030694
0.381000,0.041321
0.381500,0.051626
0.382000,0.057744
0.382500,0.058710
0.383000,0.063863
0.383500,0.062252
0.384000,0.065795
0.384500,0.055812
0.385000,0.046795
0.385500,0.038101
0.386000,0.026830
0.386500,0.017491
0.387000,0.006220
0.387500,0.003644
0.388000,0.012661
0.388500,0.023610
0.389000,0.035525
0.389500,0.045829
0.390000,0.054846
0.390500,0.059676
0.391000,0.061608
0.391500,0.059676
0.392000,0.061608
0.392500,0.059676
0.393000,0.055490
0.393500,0.049372
0.394000,0.037779
0.394500,0.025542
0.395000,0.014271
0.395500,0.006220
0.396000,0.004610
0.396500,0.017491
0.397000,0.030050
0.397500,0.042287
0.398000,0.049050
0.398500,0.054524
0.399000,0.056134
0.399500,0.056778
0.400000,0.058066
0.400500,0.055490
0.401000,0.052270
0.401500,0.050660
0.402000,0.042931
0.402500,0.034880
0.403000,0.025864
0.403500,0.015237
0.404000,0.005576
0.404500,0.004288
0.405000,0.024898
0.405500,0.039389
0.406000,0.048083
0.406500,0.053880
0.407000,0.056134
0.407500,0.055812
0.408000,0.059998
0.408500,0.060964
0.409000,0.057422
0.409500,0.054846
0.410000,0.051304
0.410500,0.041643
0.411000,0.032626
0.411500,0.024898
0.412000,0.014271
0.412500,0.003000
0.413000,0.012339
0.413500,0.031016
0.414000,0.042931
0.414500,0.050338
0.415000,0.054524
0.415500,0.059354
0.416000,0.061930
0.416500,0.064507
0.417000,0.066761
0.417500,0.064185
0.418000,0.059998
0.418500,0.052270
0.419000,0.039389
0.419500,0.026186
0.420000,0.013627
0.420500,0.005576
0.421000,0.009763
0.421500,0.023288
0.422000,0.035847
0.422500,0.043253
0.423000,0.047439
0.423500,0.054524
0.424000,0.058388
0.424500,0.063863
0.425000,0.067405
0.425500,0.066761
0.426000,0.063541
0.426500,0.056778
0.427000,0.045507
0.427500,0.035525
0.428000,0.024576
0.428500,0.014271
0.429000,0.005898
0.429500,0.005254
0.430000,0.020067
0.430500,0.033592
0.431000,0.041321
0.431500,0.047761
0.432000,0.053880
0.432500,0.059032
0.433000,0.064507
0.433500,0.070625
0.434000,0.070625
0.434500,0.065473
0.435000,0.059032
0.435500,0.046473
0.436000,0.034558
0.436500,0.021678
0.437000,0.010085
0.437500,0.000102
0.438000,0.012017
0.438500,0.027474
0.439000,0.040677
0.439500,0.051304
0.440000,0.059676
0.440500,0.060964
0.441000,0.063219
0.441500,0.066761
0.442000,0.064829
0.442500,0.062252
0.443000,0.058710
0.443500,0.050338
0.444000,0.036169
0.444500,0.026830
0.445000,0.017169
0.445500,0.005898
0.446000,0.008797
0.446500,0.023288
0.447000,0.037779
0.447500,0.048727
0.448000,0.054524
0.448500,0.057100
0.449000,0.053558
0.449500,0.053558
0.450000,0.054846
0.450500,0.057422
0.451000,0.052914
0.451500,0.050016
0.452000,0.038101
0.452500,0.028440
0.453000,0.016525
0.453500,0.007831
0.454000,0.001712
0.454500,0.011051
0.455000,0.022644
0.455500,0.033592
0.456000,0.040999
0.456500,0.043253
0.457000,0.051948
0.457500,0.054524
0.458000,0.058388
0.458500,0.060320
0.459000,0.058066
0.459500,0.053880
0.460000,0.048405
0.460500,0.036491
0.461000,0.025864
0.461500,0.014915
0.462000,0.011695
0.462500,-0.000542
0.463000,0.010085
0.463500,0.025542
0.464000,0.038101
0.464500,0.050338
0.465000,0.056456
0.465500,0.060320
0.466000,0.063219
0.466500,0.065795
0.467000,0.066439
0.467500,0.064185
0.468000,0.061930
0.468500,0.052592
0.469000,0.039067
0.469500,0.025864
0.470000,0.014271
0.470500,0.003000
0.471000,0.007831
0.471500,0.021678
0.472000,0.034558
0.472500,0.046795
0.473000,0.055490
0.473500,0.066117
0.474000,0.069659
0.474500,0.076099
0.475000,0.075777
0.475500,0.071269
0.476000,0.066117
0.476500,0.063863
0.477000,0.054202
0.477500,0.043897
0.478000,0.030050
0.478500,0.020067
0.479000,0.011051
0.479500,0.001390
0.480000,0.018457
0.480500,0.035847
0.481000,0.047439
0.481500,0.055812
0.482000,0.064829
0.482500,0.069337
0.483000,0.074489
0.483500,0.073201
0.484000,0.071591
0.484500,0.063541
0.485000,0.052270
0.485500,0.040033
0.486000,0.029084
0.486500,0.017169
0.487000,0.009119
0.487500,0.004932
0.488000,0.007509
0.488500,0.023288
0.489000,0.039067
0.489500,0.049372
0.490000,0.057744
0.490500,0.061608
0.491000,0.063541
0.491500,0.065473
0.492000,0.066117
0.492500,0.064507
0.493000,0.060320
0.493500,0.052914
0.494000,0.047761
0.494500,0.031660
0.495000,0.020711
0.495500,0.008475
0.496000,0.004288
0.496500,0.017813
0.497000,0.029728
0.497500,0.041321
0.498000,0.049694
0.498500,0.054524
0.499000,0.058066
0.499500,0.062574
0.500000,0.064829
0.500500,0.064185
0.501000,0.058710
0.501500,0.054846
0.502000,0.044219
0.502500,0.032304
0.503000,0.021678
0.503500,0.010729
0.504000,0.003644
0.504500,0.010085
0.505000,0.021356
0.505500,0.035525
0.506000,0.044219
0.506500,0.050016
0.507000,0.054524
0.507500,0.057744
0.508000,0.059998
0.508500,0.063541
0.509000,0.059998
0.509500,0.056778
0.510000,0.051304
0.510500,0.042609
0.511000,0.031982
0.511500,0.021356
0.512000,0.010407
0.512500,0.003966
0.513000,0.004610
0.513500,0.019101
0.514000,0.033914
0.514500,0.045185
0.515000,0.054524
0.515500,0.059354
0.516000,0.061608
0.516500,0.064507
0.517000,0.062897
0.517500,0.059032
0.518000,0.054846
0.518500,0.044541
0.519000,0.033592
0.519500,0.022000
0.520000,0.012017
0.520500,0.002356
0.521000,0.006542
0.521500,0.017813
0.522000,0.031660
0.522500,0.043897
0.523000,0.050982
0.523500,0.055812
0.524000,0.055490
0.524500,0.059676
0.525000,0.064185
0.525500,0.065473
0.526000,0.062897
0.526500,0.059354
0.527000,0.048405
0.527500,0.034558
0.528000,0.020067
0.528500,0.010407
0.529000,0.000102
0.529500,0.009763
0.530000,0.023932
0.530500,0.035847
0.531000,0.045185
0.531500,0.052270
0.532000,0.054846
0.532500,0.059354
0.533000,0.063219
0.533500,0.068049
0.534000,0.066439
0.534500,0.064185
0.535000,0.059998
0.535500,0.044863
0.536000,0.032626
0.536500,0.020067
0.537000,0.009119
0.537500,0.002034
0.538000,0.009441
0.538500,0.024254
0.539000,0.038423
0.539500,0.046795
0.540000,0.054846
0.540500,0.063541
0.541000,0.067727
0.541500,0.070947
0.542000,0.066439
0.542500,0.064185
0.543000,0.063541
0.543500,0.054524
0.544000,0.044863
0.544500,0.032948
0.545000,0.022644
0.545500,0.011373
0.546000,-0.000220
0.546500,0.013627
0.547000,0.032948
0.547500,0.047761
0.548000,0.052914
0.548500,0.060964
0.549000,0.060964
0.549500,0.059676
0.550000,0.060964
0.550500,0.063219
0.551000,0.061930
0.551500,0.058066
0.552000,0.048083
0.552500,0.031016
0.553000,0.019101
0.553500,0.009763
0.554000,0.002356
0.554500,0.008153
0.555000,0.025220
0.555500,0.037457
0.556000,0.044219
0.556500,0.054846
0.557000,0.059354
0.557500,0.060320
0.558000,0.064185
0.558500,0.066761
0.559000,0.064185
0.559500,0.058710
0.560000,0.054846
0.560500,0.043897
0.561000,0.033914
0.561500,0.022644
0.562000,0.009441
0.562500,0.000424
0.563000,0.010407
0.563500,0.028118
0.564000,0.040999
0.564500,0.050660
0.565000,0.060320
0.565500,0.065151
0.566000,0.069337
0.566500,0.072235
0.567000,0.070625
0.567500,0.065151
0.568000,0.057744
0.568500,0.048727
0.569000,0.034236
0.569500,0.021356
0.570000,0.014915
0.570500,0.002678
0.571000,0.005576
0.571500,0.013305
0.572000,0.027152
0.572500,0.037457
0.573000,0.044219
0.573500,0.051948
0.574000,0.061608
0.574500,0.064829
0.575000,0.066439
0.575500,0.064507
0.576000,0.059354
0.576500,0.055490
0.577000,0.048083
0.577500,0.039711
0.578000,0.030694
0.578500,0.019101
0.579000,0.008475
0.579500,-0.002474
0.580000,0.015881
0.580500,0.031982
0.581000,0.043253
0.581500,0.053236
0.582000,0.060964
0.582500,0.063863
0.583000,0.064507
0.583500,0.063219
0.584000,0.057100
0.584500,0.049694
0.585000,0.044219
0.585500,0.037135
0.586000,0.025542
0.586500,0.015559
0.587000,0.007187
0.587500,0.002678
0.588000,0.009441
0.588500,0.022322
0.589000,0.034236
0.589500,0.045507
0.590000,0.059354
0.590500,0.064829
0.591000,0.068693
0.591500,0.069015
0.592000,0.067083
0.592500,0.061286
0.593000,0.053236
0.593500,0.048727
0.594000,0.035525
0.594500,0.024254
0.595000,0.016525
0.595500,0.005898
0.596000,0.005898
0.596500,0.017813
0.597000,0.032304
0.597500,0.044219
0.598000,0.050660
0.598500,0.059354
0.599000,0.063541
0.599500,0.063219
0.600000,0.066117
0.600500,0.065151
0.601000,0.064507
0.601500,0.060642
0.602000,0.052592
0.602500,0.037457
0.603000,0.021033
0.603500,0.003644
0.604000,0.008797
0.604500,0.018135
0.605000,0.030694
0.605500,0.039067
0.606000,0.048405
0.606500,0.055168
0.607000,0.057422
0.607500,0.060964
0.608000,0.063219
0.608500,0.066761
0.609000,0.064507
0.609500,0.059998
0.610000,0.052270
0.610500,0.043897
0.611000,0.032304
0.611500,0.020389
0.612000,0.011051
0.612500,0.002356
0.613000,0.009119
0.613500,0.021356
0.614000,0.037135
0.614500,0.048405
0.615000,0.056778
0.615500,0.064185
0.616000,0.068693
0.616500,0.072235
0.617000,0.072557
0.617500,0.061286
0.618000,0.054846
0.618500,0.041643
0.619000,0.030050
0.619500,0.017813
0.620000,0.009763
0.620500,0.003322
0.621000,0.004932
0.621500,0.016847
0.622000,0.031338
0.622500,0.040355
0.623000,0.046795
0.623500,0.056778
0.624000,0.063541
0.624500,0.067727
0.625000,0.066761
0.625500,0.065151
0.626000,0.061608
0.626500,0.056778
0.627000,0.047761
0.627500,0.039711
0.628000,0.025542
0.628500,0.013627
0.629000,0.004288
0.629500,0.011051
0.630000,0.024576
0.630500,0.036169
0.631000,0.045829
0.631500,0.052270
0.632000,0.058066
0.632500,0.058388
0.633000,0.061286
0.633500,0.062252
0.634000,0.059354
0.634500,0.055490
0.635000,0.048727
0.635500,0.040033
0.636000,0.032948
0.636500,0.022644
0.637000,0.016847
0.637500,0.005576
0.638000,0.005898
0.638500,0.023610
0.639000,0.034880
0.639500,0.051304
0.640000,0.059676
0.640500,0.068371
0.641000,0.070303
0.641500,0.075455
0.642000,0.069337
0.642500,0.065795
0.643000,0.058388
0.643500,0.050982
0.644000,0.040033
0.644500,0.026830
0.645000,0.017169
0.645500,0.007187
0.646000,0.005898
0.646500,0.021033
0.647000,0.039389
0.647500,0.048727
0.648000,0.050660
0.648500,0.055812
0.649000,0.056778
0.649500,0.056778
0.650000,0.059354
0.650500,0.065151
0.651000,0.066439
0.651500,0.061286
0.652000,0.049372
0.652500,0.034558
0.653000,0.020067
0.653500,0.009441
0.654000,0.003966
0.654500,0.013949
0.655000,0.023610
0.655500,0.036491
0.656000,0.045507
0.656500,0.049694
0.657000,0.055168
0.657500,0.056134
0.658000,0.057422
0.658500,0.059676
0.659000,0.055490
0.659500,0.054524
0.660000,0.049372
0.660500,0.043897
0.661000,0.033914
0.661500,0.022644
0.662000,0.009441
0.662500,0.000424
0.663000,0.011695
0.663500,0.025220
0.664000,0.036169
0.664500,0.047117
0.665000,0.053558
0.665500,0.057100
0.666000,0.055490
0.666500,0.058388
0.667000,0.055490
0.667500,0.054524
0.668000,0.056134
0.668500,0.048083
0.669000,0.035847
0.669500,0.026186
0.670000,0.014915
0.670500,0.004932
0.671000,0.002678
0.671500,0.017491
0.672000,0.034236
0.672500,0.049372
0.673000,0.053880
0.673500,0.057744
0.674000,0.062252
0.674500,0.064507
0.675000,0.063863
0.675500,0.061930
0.676000,0.059676
0.676500,0.052914
0.677000,0.044863
0.677500,0.032304
0.678000,0.022644
0.678500,0.012017
0.679000,0.004288
0.679500,0.003966
0.680000,0.019745
0.680500,0.036813
0.681000,0.047117
0.681500,0.055490
0.682000,0.059032
0.682500,0.061286
0.683000,0.070303
0.683500,0.069337
0.684000,0.065795
0.684500,0.063541
0.685000,0.056456
0.685500,0.045507
0.686000,0.028440
0.686500,0.016525
0.687000,0.003644
0.687500,0.006542
0.688000,0.016847
0.688500,0.031338
0.689000,0.041321
0.689500,0.045829
0.690000,0.049694
0.690500,0.054202
0.691000,0.055168
0.691500,0.062897
0.692000,0.069015
0.692500,0.069659
0.693000,0.066761
0.693500,0.060320
0.694000,0.044541
0.694500,0.036169
0.695000,0.020711
0.695500,0.010407
0.696000,-0.000542
0.696500,0.014271
0.697000,0.032948
0.697500,0.046473
0.698000,0.053236
0.698500,0.056456
0.699000,0.060642
0.699500,0.060642
0.700000,0.062574
0.700500,0.062252
0.701000,0.061930
0.701500,0.057744
0.702000,0.046473
0.702500,0.032304
0.703000,0.021033
0.703500,0.008797
0.704000,0.004610
0.704500,0.014593
0.705000,0.024576
0.705500,0.036813
0.706000,0.046795
0.706500,0.052592
0.707000,0.057744
0.707500,0.058710
0.708000,0.060320
0.708500,0.061286
0.709000,0.059998
0.709500,0.057422
0.710000,0.054524
0.710500,0.043897
0.711000,0.030050
0.711500,0.020389
0.712000,0.010729
0.712500,-0.001830
0.713000,0.014271
0.713500,0.029084
0.714000,0.038423
0.714500,0.050338
0.715000,0.053880
0.715500,0.060964
0.716000,0.065151
0.716500,0.067405
0.717000,0.066117
0.717500,0.061608
0.718000,0.059032
0.718500,0.052592
0.719000,0.040355
0.719500,0.026508
0.720000,0.013305
0.720500,0.004288
0.721000,0.009119
0.721500,0.022966
0.722000,0.032948
0.722500,0.046795
0.723000,0.053880
0.723500,0.061930
0.724000,0.065151
0.724500,0.066117
0.725000,0.063541
0.725500,0.060642
0.726000,0.058710
0.726500,0.052592
0.727000,0.044219
0.727500,0.032626
0.728000,0.022644
0.728500,0.012661
0.729000,-0.000542
0.729500,0.007509
0.730000,0.020389
0.730500,0.033914
0.731000,0.045185
0.731500,0.055812
0.732000,0.060320
0.732500,0.064507
0.733000,0.067405
0.733500,0.066117
0.734000,0.063219
0.734500,0.057422
0.735000,0.049694
0.735500,0.040355
0.736000,0.027796
0.736500,0.016203
0.737000,0.006542
0.737500,0.005576
0.738000,0.013949
0.738500,0.028118
0.739000,0.043575
0.739500,0.052270
0.740000,0.057100
0.740500,0.055812
0.741000,0.057744
0.741500,0.065795
0.742000,0.065151
0.742500,0.064507
0.743000,0.061286
0.743500,0.051948
0.744000,0.041643
0.744500,0.028762
0.745000,0.017491
0.745500,0.009763
0.746000,-0.001186
0.746500,0.014593
0.747000,0.029406
0.747500,0.039389
0.748000,0.045507
0.748500,0.050016
0.749000,0.056456
0.749500,0.061608
0.750000,0.067405
0.750500,0.066117
0.751000,0.062897
0.751500,0.058066
0.752000,0.050338
0.752500,0.040033
0.753000,0.028118
0.753500,0.017813
0.754000,0.008153
0.754500,0.008475
0.755000,0.020711
0.755500,0.031338
0.756000,0.047117
0.756500,0.053880
0.757000,0.060320
0.757500,0.066761
0.758000,0.070947
0.758500,0.073845
0.759000,0.069015
0.759500,0.060964
0.760000,0.054524
0.760500,0.044541
0.761000,0.032626
0.761500,0.021356
0.762000,0.011051
0.762500,-0.000864
0.763000,0.010729
0.763500,0.024254
0.764000,0.037779
0.764500,0.044219
0.765000,0.054202
0.765500,0.059676
0.766000,0.058388
0.766500,0.059998
0.767000,0.060642
0.767500,0.060320
0.768000,0.057422
0.768500,0.049372
0.769000,0.036813
0.769500,0.026830
0.770000,0.017169
0.770500,0.006542
0.771000,0.005254
0.771500,0.015881
0.772000,0.029406
0.772500,0.040355
0.773000,0.049050
0.773500,0.053880
0.774000,0.058066
0.774500,0.063219
0.775000,0.064507
0.775500,0.067083
0.776000,0.065473
0.776500,0.062897
0.777000,0.050982
0.777500,0.036169
0.778000,0.022966
0.778500,0.012983
0.779000,0.003644
0.779500,0.006542
0.780000,0.022000
0.780500,0.037457
0.781000,0.050016
0.781500,0.056778
0.782000,0.061286
0.782500,0.065795
0.783000,0.069015
0.783500,0.068049
0.784000,0.065795
0.784500,0.059998
0.785000,0.052592
0.785500,0.042931
0.786000,0.031016
0.786500,0.020711
0.787000,0.011373
0.787500,0.002356
0.788000,0.008797
0.788500,0.023932
0.789000,0.037457
0.789500,0.050660
0.790000,0.063541
0.790500,0.067405
0.791000,0.073201
0.791500,0.073845
0.792000,0.073523
0.792500,0.067083
0.793000,0.065151
0.793500,0.051304
0.794000,0.040999
0.794500,0.023932
0.795000,0.010085
0.795500,0.003966
0.796000,0.005576
0.796500,0.010407
0.797000,0.024254
0.797500,0.036491
0.798000,0.046151
0.798500,0.055168
0.799000,0.058066
0.799500,0.060320
0.800000,0.064829
0.800500,0.062897
0.801000,0.063863
0.801500,0.060964
0.802000,0.052592
0.802500,0.041643
0.803000,0.030372
0.803500,0.017813
0.804000,0.010407
0.804500,0.003000
0.805000,0.015881
0.805500,0.033592
0.806000,0.046151
0.806500,0.057100
0.807000,0.064185
0.807500,0.065795
0.808000,0.067405
0.808500,0.068371
0.809000,0.064829
0.809500,0.061286
0.810000,0.053236
0.810500,0.041321
0.811000,0.029728
0.811500,0.021033
0.812000,0.006542
0.812500,0.004288
0.813000,0.012983
0.813500,0.021678
0.814000,0.031338
0.814500,0.041321
0.815000,0.049694
0.815500,0.059354
0.816000,0.060320
0.816500,0.064185
0.817000,0.062897
0.817500,0.061930
0.818000,0.060320
0.818500,0.046151
0.819000,0.035525
0.819500,0.022966
0.820000,0.013949
0.820500,0.005254
0.821000,0.007509
0.821500,0.016525
0.822000,0.031016
0.822500,0.040033
0.823000,0.044863
0.823500,0.046151
0.824000,0.053236
0.824500,0.062252
0.825000,0.067727
0.825500,0.072557
0.826000,0.069981
0.826500,0.067083
0.827000,0.055812
0.827500,0.043897
0.828000,0.031338
0.828500,0.020067
0.829000,0.007509
0.829500,0.000746
0.830000,0.018779
0.830500,0.040355
0.831000,0.050982
0.831500,0.059998
0.832000,0.061608
0.832500,0.061608
0.833000,0.057744
0.833500,0.055490
0.834000,0.048405
0.834500,0.044863
0.835000,0.043253
0.835500,0.032948
0.836000,0.026186
0.836500,0.022000
0.837000,0.014271
0.837500,0.002356
0.838000,0.011695
0.838500,0.026186
0.839000,0.039067
0.839500,0.049050
0.840000,0.053558
0.840500,0.056456
0.841000,0.061286
0.841500,0.069981
0.842000,0.081252
0.842500,0.089302
0.843000,0.086726
0.843500,0.078354
0.844000,0.059998
0.844500,0.042931
0.845000,0.028440
0.845500,0.011051
0.846000,0.005576
0.846500,0.020067
0.847000,0.030694
0.847500,0.035847
0.848000,0.042287
0.848500,0.049050
0.849000,0.052914
0.849500,0.056456
0.850000,0.056134
0.850500,0.054846
0.851000,0.047117
0.851500,0.040999
0.852000,0.034236
0.852500,0.018779
0.853000,0.005898
0.853500,0.026508
0.854000,0.040355
0.854500,0.050660
0.855000,0.056778
0.855500,0.064185
0.856000,0.069337
0.856500,0.071269
0.857000,0.069337
0.857500,0.063863
0.858000,0.064185
0.858500,0.065795
0.859000,0.068371
0.859500,0.066439
0.860000,0.062897
0.860500,0.059676
0.861000,0.049694
0.861500,0.045829
0.862000,0.035847
0.862500,0.031016
0.863000,0.023288
0.863500,0.008475
0.864000,0.010407
0.864500,0.024576
0.865000,0.031660
0.865500,0.039067
0.866000,0.043253
0.866500,0.045507
0.867000,0.046151
0.867500,0.040355
0.868000,0.031660
0.868500,0.023932
0.869000,0.012661
0.869500,0.002678
0.870000,0.007187
0.870500,0.014593
0.871000,0.024576
0.871500,0.043253
0.872000,0.068371
0.872500,0.085760
0.873000,0.092845
0.873500,0.095743
0.874000,0.096065
0.874500,0.096709
0.875000,0.092845
0.875500,0.090913
0.876000,0.092201
0.876500,0.091235
0.877000,0.087370
0.877500,0.074167
0.878000,0.056778
0.878500,0.039389
0.879000,0.025220
0.879500,0.011373
0.880000,-0.000220
0.880500,0.019101
0.881000,0.031338
0.881500,0.040355
0.882000,0.044541
0.882500,0.047761
0.883000,0.055168
0.883500,0.064507
0.884000,0.069337
0.884500,0.071913
0.885000,0.073845
0.885500,0.063219
0.886000,0.051304
0.886500,0.039067
0.887000,0.018457
0.887500,0.004932
0.888000,0.028762
0.888500,0.054524
0.889000,0.080286
0.889500,0.092845
0.890000,0.097997
0.890500,0.104760
0.891000,0.108302
0.891500,0.115386
0.892000,0.122471
0.892500,0.126013
0.893000,0.134708
0.893500,0.147589
0.894000,0.156927
0.894500,0.168198
0.895000,0.182689
0.895500,0.209739
0.896000,0.263839
0.896500,0.316007
0.897000,0.283160
0.897500,0.192994
0.898000,0.089946
0.898500,0.008153
0.899000,0.048405
0.899500,0.086404
0.900000,0.109912
0.900500,0.115064
0.901000,0.112810
0.901500,0.114098
0.902000,0.110556
0.902500,0.110878
0.903000,0.113132
0.903500,0.107658
0.904000,0.106370
0.904500,0.102827
0.905000,0.098963
0.905500,0.094777
0.906000,0.091557
0.906500,0.089302
0.907000,0.079320
0.907500,0.066439
0.908000,0.048405
0.908500,0.041643
0.909000,0.033270
0.909500,0.025864
0.910000,0.015881
0.910500,0.012017
0.911000,0.019745
0.911500,0.040355
0.912000,0.055812
0.912500,0.073523
0.913000,0.090590
0.913500,0.108624
0.914000,0.116996
0.914500,0.110234
0.915000,0.098963
0.915500,0.095099
0.916000,0.090913
0.916500,0.091557
0.917000,0.092523
0.917500,0.086082
0.918000,0.074167
0.918500,0.062897
0.919000,0.054202
0.919500,0.035847
0.920000,0.017169
0.920500,0.004610
0.921000,0.024898
0.921500,0.046473
0.922000,0.065151
0.922500,0.073845
0.923000,0.076099
0.923500,0.077066
0.924000,0.065473
0.924500,0.048405
0.925000,0.037457
0.925500,0.033592
0.926000,0.029084
0.926500,0.028762
0.927000,0.016203
0.927500,-0.003440
0.928000,0.024576
0.928500,0.038745
0.929000,0.050982
0.929500,0.063541
0.930000,0.080608
0.930500,0.097675
0.931000,0.111844
0.931500,0.116996
0.932000,0.125369
0.932500,0.134064
0.933000,0.145656
0.933500,0.152741
0.934000,0.151775
0.934500,0.147589
0.935000,0.142758
0.935500,0.132131
0.936000,0.122793
0.936500,0.107658
0.937000,0.093489
0.937500,0.076099
0.938000,0.061608
0.938500,0.045185
0.939000,0.034236
0.939500,0.025220
0.940000,0.018779
0.940500,0.009119
0.941000,0.003644
0.941500,0.012339
0.942000,0.023288
0.942500,0.023610
0.943000,0.014915
0.943500,0.005898
0.944000,0.002678
0.944500,0.012983
0.945000,0.022644
0.945500,0.028762
0.946000,0.034558
0.946500,0.037779
0.947000,0.052592
0.947500,0.069981
0.948000,0.078676
0.948500,0.084472
0.949000,0.094455
0.949500,0.094133
0.950000,0.088014
0.950500,0.075777
0.951000,0.066439
0.951500,0.059354
0.952000,0.044863
0.952500,0.029406
0.953000,0.018135
0.953500,0.009441
0.954000,0.004932
0.954500,0.009763
0.955000,0.018457
0.955500,0.030694
0.956000,0.040033
0.956500,0.047439
0.957000,0.054524
0.957500,0.057100
0.958000,0.059032
0.958500,0.059032
0.959000,0.053558
0.959500,0.052914
0.960000,0.053558
0.960500,0.050016
0.961000,0.037779
0.961500,0.024576
0.962000,0.013305
0.962500,0.007187
0.963000,0.004932
0.963500,0.021033
0.964000,0.035525
0.964500,0.050338
0.965000,0.059354
0.965500,0.064507
0.966000,0.065473
0.966500,0.073523
0.967000,0.081252
0.967500,0.085116
0.968000,0.078998
0.968500,0.069659
0.969000,0.055168
0.969500,0.043575
0.970000,0.038745
0.970500,0.028762
0.971000,0.013627
0.971500,0.008153
0.972000,0.039711
0.972500,0.066761
0.973000,0.079964
0.973500,0.092523
0.974000,0.098963
0.974500,0.093811
0.975000,0.080608
0.975500,0.064829
0.976000,0.043253
0.976500,0.022000
0.977000,0.008153
0.977500,-0.001830
0.978000,0.008475
0.978500,0.007831
0.979000,0.004932
0.979500,0.007831
0.980000,0.018457
0.980500,0.027152
0.981000,0.037457
0.981500,0.037135
0.982000,0.039067
0.982500,0.048405
0.983000,0.056456
0.983500,0.060642
0.984000,0.059032
0.984500,0.046473
0.985000,0.030372
0.985500,0.009763
0.986000,0.007509
0.986500,0.020389
0.987000,0.022322
0.987500,0.013305
0.988000,0.020711
0.988500,0.039067
0.989000,0.055812
0.989500,0.071913
0.990000,0.072557
0.990500,0.074167
0.991000,0.066439
0.991500,0.070947
0.992000,0.071913
0.992500,0.066439
0.993000,0.066761
0.993500,0.066439
0.994000,0.060964
0.994500,0.046151
0.995000,0.035847
0.995500,0.034236
0.996000,0.026830
0.996500,0.011373
0.997000,0.009441
0.997500,0.025220
0.998000,0.030372
0.998500,0.027796
0.999000,0.029406
0.999500,0.025220
1.000000,0.030694
1.000500,0.043253
1.001000,0.054524
1.001500,0.052592
1.002000,0.040355
1.002500,0.021033
1.003000,0.003000
1.003500,0.009441
1.004000,0.017491
1.004500,0.020067
1.005000,0.026508
1.005500,0.040677
1.006000,0.050660
1.006500,0.069659
1.007000,0.079964
1.007500,0.086726
1.008000,0.095421
1.008500,0.098963
1.009000,0.097997
1.009500,0.089624
1.010000,0.074811
1.010500,0.052592
1.011000,0.026508
1.011500,-0.000220
1.012000,0.017813
1.012500,0.021678
1.013000,0.019745
1.013500,0.023610
1.014000,0.028762
1.014500,0.030050
1.015000,0.030372
1.015500,0.037135
1.016000,0.039067
1.016500,0.038745
1.017000,0.041643
1.017500,0.037135
1.018000,0.032948
1.018500,0.018135
1.019000,0.003644
1.019500,0.012339
1.020000,0.022000
1.020500,0.027796
1.021000,0.030694
1.021500,0.038745
1.022000,0.051626
1.022500,0.059354
1.023000,0.069659
1.023500,0.085116
1.024000,0.103149
1.024500,0.114742
1.025000,0.119251
1.025500,0.109590
1.026000,0.091557
1.026500,0.071269
1.027000,0.059032
1.027500,0.046473
1.028000,0.031660
1.028500,0.013949
1.029000,0.000424
1.029500,0.019745
1.030000,0.035525
1.030500,0.053558
1.031000,0.062252
1.031500,0.066761
1.032000,0.065151
1.032500,0.058388
1.033000,0.047439
1.033500,0.039711
1.034000,0.031982
1.034500,0.031982
1.035000,0.034880
1.035500,0.032626
1.036000,0.021033
1.036500,0.006864
1.037000,0.006864
1.037500,0.007187
1.038000,0.004610
1.038500,0.004288
1.039000,0.007187
1.039500,0.017813
1.040000,0.027796
1.040500,0.030694
1.041000,0.032304
1.041500,0.041965
1.042000,0.042609
1.042500,0.045185
1.043000,0.047117
1.043500,0.048405
1.044000,0.042609
1.044500,0.036813
1.045000,0.029728
1.045500,0.028440
1.046000,0.028440
1.046500,0.019101
1.047000,-0.001830
1.047500,0.015237
1.048000,0.027796
1.048500,0.041965
1.049000,0.054202
1.049500,0.070947
1.050000,0.086082
1.050500,0.103149
1.051000,0.107014
1.051500,0.109912
1.052000,0.093167
1.052500,0.067727
1.053000,0.051626
1.053500,0.042287
1.054000,0.021678
1.054500,0.006220
1.055000,0.025220
1.055500,0.043253
1.056000,0.060642
1.056500,0.069659
1.057000,0.071591
1.057500,0.063541
1.058000,0.057744
1.058500,0.050338
1.059000,0.043253
1.059500,0.035525
1.060000,0.036491
1.060500,0.032626
1.061000,0.021356
1.061500,0.010729
1.062000,0.002034
1.062500,0.009763
1.063000,0.018457
1.063500,0.033914
1.064000,0.047761
1.064500,0.059676
1.065000,0.063863
1.065500,0.070947
1.066000,0.073845
1.066500,0.069015
1.067000,0.064507
1.067500,0.062897
1.068000,0.072557
1.068500,0.077710
1.069000,0.076099
1.069500,0.066439
1.070000,0.048405
1.070500,0.027152
1.071000,0.002678
1.071500,0.016525
1.072000,0.035203
1.072500,0.047117
1.073000,0.053880
1.073500,0.054202
1.074000,0.051304
1.074500,0.057744
1.075000,0.065151
1.075500,0.064185
1.076000,0.056778
1.076500,0.048405
1.077000,0.041321
1.077500,0.034558
1.078000,0.028118
1.078500,0.015237
1.079000,0.004288
1.079500,0.014271
1.080000,0.035203
1.080500,0.054202
1.081000,0.066439
1.081500,0.061286
1.082000,0.045507
1.082500,0.045829
1.083000,0.055490
1.083500,0.063863
1.084000,0.064185
1.084500,0.055168
1.085000,0.035847
1.085500,0.024898
1.086000,0.021356
1.086500,0.019745
1.087000,0.016847
1.087500,0.008797
1.088000,0.004932
1.088500,0.019745
1.089000,0.036813
1.089500,0.048727
1.090000,0.055490
1.090500,0.064507
1.091000,0.073845
1.091500,0.076421
1.092000,0.081896
1.092500,0.078354
1.093000,0.073523
1.093500,0.069015
1.094000,0.064829
1.094500,0.060642
1.095000,0.047117
1.095500,0.026830
1.096000,0.005576
1.096500,0.011051
1.097000,0.025220
1.097500,0.035203
1.098000,0.047439
1.098500,0.058710
1.099000,0.064185
1.099500,0.074167
1.100000,0.079964
1.100500,0.080608
1.101000,0.077388
1.101500,0.063219
1.102000,0.042287
1.102500,0.026508
1.103000,0.010729
1.103500,0.006864
1.104000,0.015881
1.104500,0.032304
1.105000,0.047117
1.105500,0.070303
1.106000,0.094777
1.106500,0.101539
1.107000,0.090590
1.107500,0.078998
1.108000,0.066117
1.108500,0.057744
1.109000,0.048405
1.109500,0.033592
1.110000,0.009763
1.110500,0.014915
1.111000,0.029084
1.111500,0.032304
1.112000,0.035525
1.112500,0.038423
1.113000,0.034236
1.113500,0.032948
1.114000,0.029084
1.114500,0.026508
1.115000,0.020389
1.115500,0.006220
1.116000,0.009119
1.116500,0.018135
1.117000,0.023610
1.117500,0.024576
1.118000,0.026830
1.118500,0.030050
1.119000,0.023610
1.119500,0.026830
1.120000,0.030050
1.120500,0.015237
1.121000,0.014271
1.121500,0.026830
1.122000,0.021356
1.122500,0.024576
1.123000,0.045185
1.123500,0.066761
1.124000,0.067727
1.124500,0.061286
1.125000,0.061608
1.125500,0.062252
1.126000,0.064829
1.126500,0.059998
1.127000,0.048083
1.127500,0.029406
1.128000,0.007187
1.128500,0.017169
1.129000,0.035525
1.129500,0.043575
1.130000,0.054202
1.130500,0.055812
1.131000,0.074489
1.131500,0.075133
1.132000,0.076743
1.132500,0.079642
1.133000,0.078676
1.133500,0.071269
1.134000,0.065151
1.134500,0.057422
1.135000,0.046473
1.135500,0.035847
1.136000,0.019101
1.136500,0.005254
1.137000,0.010729
1.137500,0.032304
1.138000,0.052914
1.138500,0.061286
1.139000,0.051304
1.139500,0.042287
1.140000,0.026830
1.140500,0.017491
1.141000,0.025864
1.141500,0.041965
1.142000,0.055168
1.142500,0.059354
1.143000,0.055812
1.143500,0.061286
1.144000,0.059676
1.144500,0.055168
1.145000,0.061286
1.145500,0.062574
1.146000,0.053236
1.146500,0.040033
1.147000,0.025864
1.147500,0.006542
1.148000,0.023288
1.148500,0.048405
1.149000,0.061286
1.149500,0.070625
1.150000,0.086726
1.150500,0.087370
1.151000,0.069659
1.151500,0.054524
1.152000,0.043253
1.152500,0.033592
1.153000,0.023610
1.153500,0.006220
1.154000,0.009119
1.154500,0.012661
1.155000,0.017169
1.155500,0.028118
1.156000,0.027152
1.156500,0.030694
1.157000,0.034558
1.157500,0.036813
1.158000,0.046151
1.158500,0.057100
1.159000,0.070625
1.159500,0.073523
1.160000,0.065151
1.160500,0.042609
1.161000,0.019101
1.161500,-0.004084
1.162000,0.016525
1.162500,0.022000
1.163000,0.057100
1.163500,0.068049
1.164000,0.082540
1.164500,0.085760
1.165000,0.089624
1.165500,0.086404
1.166000,0.085438
1.166500,0.082218
1.167000,0.079320
1.167500,0.071913
1.168000,0.062252
1.168500,0.051304
1.169000,0.035847
1.169500,0.021356
1.170000,0.006220
1.170500,0.007831
1.171000,0.021356
1.171500,0.024254
1.172000,0.029406
1.172500,0.033592
1.173000,0.044541
1.173500,0.049050
1.174000,0.039711
1.174500,0.025220
1.175000,0.022966
1.175500,0.031016
1.176000,0.040355
1.176500,0.042287
1.177000,0.039389
1.177500,0.033914
1.178000,0.036169
1.178500,0.038423
1.179000,0.034236
1.179500,0.028440
1.180000,0.026186
1.180500,0.006542
1.181000,0.005254
1.181500,0.001712
1.182000,0.006542
1.182500,0.025220
1.183000,0.035525
1.183500,0.042609
1.184000,0.053880
1.184500,0.067405
1.185000,0.067727
1.185500,0.061930
1.186000,0.040999
1.186500,0.022322
1.187000,0.017491
1.187500,0.009441
1.188000,0.006864
1.188500,0.016525
1.189000,0.028762
1.189500,0.033592
1.190000,0.035203
1.190500,0.040355
1.191000,0.048083
1.191500,0.049050
1.192000,0.044541
1.192500,0.037135
1.193000,0.040033
1.193500,0.048083
1.194000,0.051626
1.194500,0.047117
1.195000,0.037457
1.195500,0.027796
1.196000,0.021678
1.196500,0.009119
1.197000,0.002678
1.197500,0.004610
1.198000,0.004610
1.198500,0.005898
1.199000,0.011051
1.199500,0.013305
1.200000,0.037135
1.200500,0.065151
1.201000,0.086404
1.201500,0.097031
1.202000,0.100573
1.202500,0.075133
1.203000,0.046151
1.203500,0.025542
1.204000,0.010729
1.204500,0.004288
1.205000,0.003644
1.205500,0.024576
1.206000,0.050982
1.206500,0.078676
1.207000,0.095421
1.207500,0.109590
1.208000,0.108302
1.208500,0.103471
1.209000,0.091879
1.209500,0.077388
1.210000,0.066761
1.210500,0.050016
1.211000,0.025220
1.211500,0.007509
1.212000,0.008797
1.212500,0.009119
1.213000,0.006220
1.213500,0.001390
1.214000,0.004610
1.214500,0.008153
1.215000,0.020389
1.215500,0.038745
1.216000,0.047117
1.216500,0.065795
1.217000,0.075133
1.217500,0.076099
1.218000,0.075455
1.218500,0.064829
1.219000,0.049694
1.219500,0.031016
1.220000,0.019423
1.220500,0.009441
1.221000,0.010729
1.221500,0.016847
1.222000,0.020389
1.222500,0.017491
1.223000,0.021356
1.223500,0.032626
1.224000,0.040677
1.224500,0.051948
1.225000,0.061286
1.225500,0.061286
1.226000,0.059354
1.226500,0.057422
1.227000,0.051626
1.227500,0.037457
1.228000,0.019423
1.228500,0.003000
1.229000,0.007187
1.229500,0.013305
1.230000,0.020389
1.230500,0.042609
1.231000,0.051304
1.231500,0.059032
1.232000,0.063541
1.232500,0.066117
1.233000,0.065473
1.233500,0.074811
1.234000,0.077066
1.234500,0.078354
1.235000,0.071269
1.235500,0.059032
1.236000,0.042931
1.236500,0.025220
1.237000,0.018779
1.237500,0.016847
1.238000,0.015237
1.238500,0.009441
1.239000,0.003322
1.239500,0.013305
1.240000,0.023288
1.240500,0.034558
1.241000,0.046795
1.241500,0.055490
1.242000,0.058710
1.242500,0.060964
1.243000,0.063863
1.243500,0.071913
1.244000,0.067727
1.244500,0.051626
1.245000,0.037457
1.245500,0.030050
1.246000,0.019745
1.246500,-0.000220
1.247000,0.023610
1.247500,0.041643
1.248000,0.059998
1.248500,0.070303
1.249000,0.064829
1.249500,0.053880
1.250000,0.062574
1.250500,0.076099
1.251000,0.077388
1.251500,0.076099
1.252000,0.068049
1.252500,0.047117
1.253000,0.030050
1.253500,0.021033
1.254000,0.005898
1.254500,0.013949
1.255000,0.028762
1.255500,0.048405
1.256000,0.062252
1.256500,0.067405
1.257000,0.063863
1.257500,0.068049
1.258000,0.070625
1.258500,0.072235
1.259000,0.072235
1.259500,0.076743
1.260000,0.082540
1.260500,0.076743
1.261000,0.069337
1.261500,0.041321
1.262000,0.009763
1.262500,0.007509
1.263000,0.020711
1.263500,0.037457
1.264000,0.046151
1.264500,0.047439
1.265000,0.047439
1.265500,0.060964
1.266000,0.071269
1.266500,0.076743
1.267000,0.078998
1.267500,0.080286
1.268000,0.079320
1.268500,0.075777
1.269000,0.064185
1.269500,0.050982
1.270000,0.034236
1.270500,0.019101
1.271000,0.004288
1.271500,0.022000
1.272000,0.046795
1.272500,0.060320
1.273000,0.064507
1.273500,0.059676
1.274000,0.051948
1.274500,0.055812
1.275000,0.067405
1.275500,0.073523
1.276000,0.069659
1.276500,0.066761
1.277000,0.063219
1.277500,0.051948
1.278000,0.041321
1.278500,0.032626
1.279000,0.020711
1.279500,0.012983
1.280000,-0.001830
1.280500,0.013949
1.281000,0.023288
1.281500,0.026186
1.282000,0.032948
1.282500,0.037135
1.283000,0.044219
1.283500,0.056456
1.284000,0.064185
1.284500,0.058066
1.285000,0.057744
1.285500,0.048083
1.286000,0.034880
1.286500,0.030372
1.287000,0.028118
1.287500,0.023610
1.288000,0.014271
1.288500,0.008153
1.289000,0.026186
1.289500,0.034236
1.290000,0.037457
1.290500,0.046151
1.291000,0.047761
1.291500,0.055490
1.292000,0.063863
1.292500,0.065473
1.293000,0.060642
1.293500,0.053880
1.294000,0.043897
1.294500,0.022644
1.295000,-0.001508
1.295500,0.012339
1.296000,0.013949
1.296500,0.032948
1.297000,0.059676
1.297500,0.075777
1.298000,0.079320
1.298500,0.074811
1.299000,0.069337
1.299500,0.058066
1.300000,0.058066
1.300500,0.060642
1.301000,0.069015
1.301500,0.069337
1.302000,0.070947
1.302500,0.069659
1.303000,0.061286
1.303500,0.045507
1.304000,0.031338
1.304500,0.016203
1.305000,0.005254
1.305500,0.007831
1.306000,0.022322
1.306500,0.036491
1.307000,0.051304
1.307500,0.067405
1.308000,0.080286
1.308500,0.095421
1.309000,0.105082
1.309500,0.112488
1.310000,0.109268
1.310500,0.087048
1.311000,0.070625
1.311500,0.050660
1.312000,0.028440
1.312500,0.010729
1.313000,0.012017
1.313500,0.032304
1.314000,0.047439
1.314500,0.059676
1.315000,0.068693
1.315500,0.067405
1.316000,0.072235
1.316500,0.092523
1.317000,0.105404
1.317500,0.108302
1.318000,0.104437
1.318500,0.104437
1.319000,0.091879
1.319500,0.071269
1.320000,0.040355
1.320500,0.013627
1.321000,0.009441
1.321500,0.024898
1.322000,0.037457
1.322500,0.049372
1.323000,0.061286
1.323500,0.073523
1.324000,0.089624
1.324500,0.096065
1.325000,0.110878
1.325500,0.117318
1.326000,0.105404
1.326500,0.084150
1.327000,0.069337
1.327500,0.039067
1.328000,0.007187
1.328500,0.010729
1.329000,0.007509
1.329500,0.002678
1.330000,0.003000
1.330500,0.011051
1.331000,0.017491
1.331500,0.025864
1.332000,0.038423
1.332500,0.048083
1.333000,0.047117
1.333500,0.043897
1.334000,0.040999
1.334500,0.042287
1.335000,0.046151
1.335500,0.046795
1.336000,0.036169
1.336500,0.032948
1.337000,0.037135
1.337500,0.041965
1.338000,0.038423
1.338500,0.019745
1.339000,0.014593
1.339500,0.026186
1.340000,0.031016
1.340500,0.034558
1.341000,0.046795
1.341500,0.056778
1.342000,0.067727
1.342500,0.078998
1.343000,0.090913
1.343500,0.108302
1.344000,0.107014
1.344500,0.086082
1.345000,0.057100
1.345500,0.036813
1.346000,0.024898
1.346500,0.018779
1.347000,0.007831
1.347500,0.008153
1.348000,0.022000
1.348500,0.033592
1.349000,0.039711
1.349500,0.050660
1.350000,0.073845
1.350500,0.084794
1.351000,0.084150
1.351500,0.084794
1.352000,0.085116
1.352500,0.078676
1.353000,0.062574
1.353500,0.050982
1.354000,0.042931
1.354500,0.025864
1.355000,0.010407
1.355500,0.014915
1.356000,0.039389
1.356500,0.055812
1.357000,0.061608
1.357500,0.060964
1.358000,0.060320
1.358500,0.062252
1.359000,0.062574
1.359500,0.063219
1.360000,0.053236
1.360500,0.041321
1.361000,0.029084
1.361500,0.016847
1.362000,0.006542
1.362500,0.007509
1.363000,0.025864
1.363500,0.043897
1.364000,0.063219
1.364500,0.070625
1.365000,0.071591
1.365500,0.069981
1.366000,0.068049
1.366500,0.067727
1.367000,0.059998
1.367500,0.054202
1.368000,0.046151
1.368500,0.040677
1.369000,0.030050
1.369500,0.018779
1.370000,0.013305
1.370500,0.010407
1.371000,0.003000
1.371500,-0.001186
1.372000,0.004932
1.372500,0.017169
1.373000,0.030372
1.373500,0.035525
1.374000,0.043897
1.374500,0.046473
1.375000,0.054202
1.375500,0.068371
1.376000,0.071269
1.376500,0.068693
1.377000,0.066761
1.377500,0.067083
1.378000,0.065795
1.378500,0.061286
1.379000,0.049050
1.379500,0.026508
1.380000,0.003966
1.380500,0.009119
1.381000,0.018779
1.381500,0.033914
1.382000,0.046151
1.382500,0.070625
1.383000,0.085760
1.383500,0.092845
1.384000,0.088980
1.384500,0.081252
1.385000,0.062574
1.385500,0.037135
1.386000,0.014593
1.386500,0.003322
1.387000,0.005254
1.387500,0.013305
1.388000,0.024254
1.388500,0.031982
1.389000,0.035203
1.389500,0.032948
1.390000,0.022000
1.390500,0.012661
1.391000,0.010729
1.391500,0.022966
1.392000,0.037779
1.392500,0.044863
1.393000,0.048083
1.393500,0.047439
1.394000,0.041321
1.394500,0.034880
1.395000,0.032626
1.395500,0.043575
1.396000,0.051626
1.396500,0.053558
1.397000,0.041965
1.397500,0.014271
1.398000,0.004610
1.398500,0.020067
1.399000,0.038423
1.399500,0.057422
1.400000,0.067083
1.400500,0.082218
1.401000,0.099929
1.401500,0.091879
1.402000,0.081574
1.402500,0.077066
1.403000,0.067727
1.403500,0.042287
1.404000,0.013627
1.404500,0.007187
1.405000,0.023610
1.405500,0.050982
1.406000,0.070947
1.406500,0.077388
1.407000,0.075455
1.407500,0.074167
1.408000,0.079320
1.408500,0.092201
1.409000,0.098963
1.409500,0.101539
1.410000,0.093811
1.410500,0.074489
1.411000,0.053558
1.411500,0.027474
1.412000,0.012661
1.412500,0.003322
1.413000,0.005898
1.413500,0.018135
1.414000,0.031016
1.414500,0.028762
1.415000,0.029406
1.415500,0.028440
1.416000,0.030372
1.416500,0.036169
1.417000,0.033592
1.417500,0.021033
1.418000,0.013627
1.418500,0.019423
1.419000,0.027796
1.419500,0.031982
1.420000,0.028440
1.420500,0.026830
1.421000,0.021678
1.421500,0.019745
1.422000,0.018135
1.422500,0.004932
1.423000,0.015559
1.423500,0.031338
1.424000,0.049694
1.424500,0.064507
1.425000,0.071591
1.425500,0.067727
1.426000,0.062574
1.426500,0.049372
1.427000,0.039067
1.427500,0.028440
1.428000,0.022644
1.428500,0.013305
1.429000,0.005576
1.429500,0.007187
1.430000,0.022644
1.430500,0.044219
1.431000,0.060320
1.431500,0.065795
1.432000,0.063541
1.432500,0.053880
1.433000,0.052592
1.433500,0.059354
1.434000,0.063863
1.434500,0.069015
1.435000,0.069981
1.435500,0.064829
1.436000,0.050660
1.436500,0.031982
1.437000,0.021678
1.437500,0.014915
1.438000,0.008153
1.438500,0.006220
1.439000,0.029406
1.439500,0.044863
1.440000,0.050660
1.440500,0.051626
1.441000,0.056778
1.441500,0.065473
1.442000,0.069659
1.442500,0.069337
1.443000,0.069981
1.443500,0.061286
1.444000,0.050660
1.444500,0.044541
1.445000,0.035203
1.445500,0.023610
1.446000,0.010407
1.446500,0.003966
1.447000,0.027796
1.447500,0.057744
1.448000,0.083184
1.448500,0.089302
1.449000,0.079964
1.449500,0.072235
1.450000,0.065795
1.450500,0.063219
1.451000,0.057744
1.451500,0.043897
1.452000,0.037457
1.452500,0.032304
1.453000,0.019101
1.453500,0.006542
1.454000,0.005576
1.454500,0.015881
1.455000,0.025542
1.455500,0.036169
1.456000,0.042609
1.456500,0.040677
1.457000,0.037457
1.457500,0.040999
1.458000,0.049372
1.458500,0.065151
1.459000,0.086082
1.459500,0.107658
1.460000,0.116352
1.460500,0.098963
1.461000,0.077066
1.461500,0.050660
1.462000,0.021678
1.462500,0.001712
1.463000,0.012661
1.463500,0.031338
1.464000,0.052592
1.464500,0.066117
1.465000,0.063863
1.465500,0.061608
1.466000,0.067727
1.466500,0.078032
1.467000,0.087692
1.467500,0.080286
1.468000,0.064185
1.468500,0.043253
1.469000,0.020067
1.469500,0.003000
1.470000,0.011373
1.470500,0.005898
1.471000,0.002356
1.471500,0.011051
1.472000,0.025220
1.472500,0.038423
1.473000,0.051626
1.473500,0.060642
1.474000,0.069337
1.474500,0.071591
1.475000,0.066439
1.475500,0.062252
1.476000,0.065795
1.476500,0.060320
1.477000,0.065151
1.477500,0.062897
1.478000,0.049050
1.478500,0.034880
1.479000,0.019423
1.479500,0.006220
1.480000,0.007187
1.480500,0.023288
1.481000,0.030050
1.481500,0.031016
1.482000,0.035847
1.482500,0.039389
1.483000,0.044863
1.483500,0.055490
1.484000,0.066761
1.484500,0.076099
1.485000,0.077388
1.485500,0.065473
1.486000,0.049372
1.486500,0.034236
1.487000,0.022000
1.487500,0.008797
1.488000,0.010407
1.488500,0.023610
1.489000,0.040355
1.489500,0.043575
1.490000,0.048083
1.490500,0.050982
1.491000,0.056778
1.491500,0.053880
1.492000,0.040033
1.492500,0.032626
1.493000,0.028762
1.493500,0.020389
1.494000,0.012983
1.494500,0.005576
1.495000,-0.000220
1.495500,0.005898
1.496000,0.012983
1.496500,0.019101
1.497000,0.033592
1.497500,0.045507
1.498000,0.056134
1.498500,0.062252
1.499000,0.068049
1.499500,0.068371
1.500000,0.066761
1.500500,0.060964
1.501000,0.053558
1.501500,0.048727
1.502000,0.039389
1.502500,0.026186
1.503000,0.016847
1.503500,0.002034
1.504000,0.012661
1.504500,0.020389
1.505000,0.019101
1.505500,0.022966
1.506000,0.032304
1.506500,0.039711
1.507000,0.041643
1.507500,0.045185
1.508000,0.050982
1.508500,0.059998
1.509000,0.073523
1.509500,0.084150
1.510000,0.081574
1.510500,0.068049
1.511000,0.044863
1.511500,0.023932
1.512000,0.010085
1.512500,0.000424
1.513000,0.012339
1.513500,0.028440
1.514000,0.043897
1.514500,0.049372
1.515000,0.050016
1.515500,0.051626
1.516000,0.052270
1.516500,0.047117
1.517000,0.044219
1.517500,0.042931
1.518000,0.041965
1.518500,0.038745
1.519000,0.032948
1.519500,0.029406
1.520000,0.027152
1.520500,0.022644
1.521000,0.008797
1.521500,0.005898
1.522000,0.024898
1.522500,0.049372
1.523000,0.064829
1.523500,0.065795
1.524000,0.067727
1.524500,0.058710
1.525000,0.065151
1.525500,0.071591
1.526000,0.069337
1.526500,0.065473
1.527000,0.058710
1.527500,0.038101
1.528000,0.010407
1.528500,0.003644
1.529000,0.009441
1.529500,0.008475
1.530000,0.014271
1.530500,0.034236
1.531000,0.053236
1.531500,0.061608
1.532000,0.062574
1.532500,0.063541
1.533000,0.054524
1.533500,0.043897
1.534000,0.035525
1.534500,0.029084
1.535000,0.026508
1.535500,0.027152
1.536000,0.025542
1.536500,0.013949
1.537000,0.003322
1.537500,0.004288
1.538000,0.010407
1.538500,0.013949
1.539000,0.026186
1.539500,0.040355
1.540000,0.060320
1.540500,0.079320
1.541000,0.094455
1.541500,0.102183
1.542000,0.101861
1.542500,0.088014
1.543000,0.066117
1.543500,0.043253
1.544000,0.036813
1.544500,0.041321
1.545000,0.047117
1.545500,0.041321
1.546000,0.019745
1.546500,-0.005372
1.547000,0.022966
1.547500,0.029084
1.548000,0.028440
1.548500,0.031338
1.549000,0.045185
1.549500,0.049050
1.550000,0.054524
1.550500,0.062252
1.551000,0.074489
1.551500,0.083506
1.552000,0.079964
1.552500,0.066117
1.553000,0.052270
1.553500,0.031982
1.554000,0.016203
1.554500,0.002356
1.555000,0.008797
1.555500,0.023288
1.556000,0.038745
1.556500,0.048405
1.557000,0.047761
1.557500,0.046473
1.558000,0.042609
1.558500,0.042931
1.559000,0.040677
1.559500,0.033914
1.560000,0.028118
1.560500,0.026508
1.561000,0.023288
1.561500,0.012983
1.562000,0.008475
1.562500,0.007187
1.563000,-0.003118
1.563500,0.014915
1.564000,0.030694
1.564500,0.044863
1.565000,0.055168
1.565500,0.061930
1.566000,0.067405
1.566500,0.067727
1.567000,0.069015
1.567500,0.070947
1.568000,0.067727
1.568500,0.060320
1.569000,0.051304
1.569500,0.044541
1.570000,0.031982
1.570500,0.022322
1.571000,0.023932
1.571500,0.020711
1.572000,0.009119
1.572500,0.006864
1.573000,0.022966
1.573500,0.035525
1.574000,0.045829
1.574500,0.049050
1.575000,0.050338
1.575500,0.050338
1.576000,0.051626
1.576500,0.058710
1.577000,0.063863
1.577500,0.058388
1.578000,0.046473
1.578500,0.033270
1.579000,0.028118
1.579500,0.017169
1.580000,0.005576
1.580500,0.020067
1.581000,0.048083
1.581500,0.073523
1.582000,0.081896
1.582500,0.078354
1.583000,0.076421
1.583500,0.077710
1.584000,0.075133
1.584500,0.066117
1.585000,0.047439
1.585500,0.029728
1.586000,0.022000
1.586500,0.023610
1.587000,0.016525
1.587500,0.007831
1.588000,0.040677
1.588500,0.071591
1.589000,0.091557
1.589500,0.095421
1.590000,0.088014
1.590500,0.081252
1.591000,0.081896
1.591500,0.087048
1.592000,0.089302
1.592500,0.073523
1.593000,0.040677
1.593500,0.018779
1.594000,0.007509
1.594500,0.015559
1.595000,0.037135
1.595500,0.047439
1.596000,0.054524
1.596500,0.057744
1.597000,0.057744
1.597500,0.053558
1.598000,0.050660
1.598500,0.045829
1.599000,0.043253
1.599500,0.036813
1.600000,0.035847
1.600500,0.037457
1.601000,0.037779
1.601500,0.036169
1.602000,0.037135
1.602500,0.032948
1.603000,0.019745
1.603500,0.003644
1.604000,0.007509
1.604500,0.012983
1.605000,0.022644
1.605500,0.035525
1.606000,0.050016
1.606500,0.058388
1.607000,0.065473
1.607500,0.075777
1.608000,0.074489
1.608500,0.083828
1.609000,0.092201
1.609500,0.089946
1.610000,0.090590
1.610500,0.072557
1.611000,0.051948
1.611500,0.037135
1.612000,0.020389
1.612500,0.006542
1.613000,0.004932
1.613500,0.012339
1.614000,0.033914
1.614500,0.049372
1.615000,0.053880
1.615500,0.050016
1.616000,0.055168
1.616500,0.056456
1.617000,0.055168
1.617500,0.052592
1.618000,0.053558
1.618500,0.052914
1.619000,0.053236
1.619500,0.050016
1.620000,0.044863
1.620500,0.040999
1.621000,0.030372
1.621500,0.015559
1.622000,0.002356
1.622500,0.012661
1.623000,0.022000
1.623500,0.032626
1.624000,0.041643
1.624500,0.049372
1.625000,0.057100
1.625500,0.064507
1.626000,0.058710
1.626500,0.050660
1.627000,0.036491
1.627500,0.019745
1.628000,0.000424
1.628500,0.012017
1.629000,0.018779
1.629500,0.025220
1.630000,0.027796
1.630500,0.030694
1.631000,0.040677
1.631500,0.052592
1.632000,0.060642
1.632500,0.067405
1.633000,0.068049
1.633500,0.071591
1.634000,0.062897
1.634500,0.056778
1.635000,0.054524
1.635500,0.051626
1.636000,0.044219
1.636500,0.033914
1.637000,0.023932
1.637500,0.012661
1.638000,0.004610
1.638500,0.020389
1.639000,0.040677
1.639500,0.054524
1.640000,0.061608
1.640500,0.067083
1.641000,0.071591
1.641500,0.078032
1.642000,0.092201
1.642500,0.096709
1.643000,0.079964
1.643500,0.066117
1.644000,0.050016
1.644500,0.030694
1.645000,0.013627
1.645500,0.004610
1.646000,0.015881
1.646500,0.031982
1.647000,0.046473
1.647500,0.052592
1.648000,0.054524
1.648500,0.054202
1.649000,0.059032
1.649500,0.053236
1.650000,0.049372
1.650500,0.047117
1.651000,0.035525
1.651500,0.031016
1.652000,0.035847
1.652500,0.033270
1.653000,0.029406
1.653500,0.025220
1.654000,0.029406
1.654500,0.027796
1.655000,0.005254
1.655500,0.026830
1.656000,0.042609
1.656500,0.042609
1.657000,0.049694
1.657500,0.062252
1.658000,0.066761
1.658500,0.072557
1.659000,0.076421
1.659500,0.065151
1.660000,0.059998
1.660500,0.047117
1.661000,0.033592
1.661500,0.020067
1.662000,0.005898
1.662500,0.005898
1.663000,0.012339
1.663500,0.020711
1.664000,0.031982
1.664500,0.044541
1.665000,0.052914
1.665500,0.056456
1.666000,0.047761
1.666500,0.036491
1.667000,0.033270
1.667500,0.037457
1.668000,0.035203
1.668500,0.027796
1.669000,0.015237
1.669500,0.005576
1.670000,0.023932
1.670500,0.026186
1.671000,0.020389
1.671500,0.019101
1.672000,0.020389
1.672500,0.033270
1.673000,0.040677
1.673500,0.053558
1.674000,0.074489
1.674500,0.081252
1.675000,0.092201
1.675500,0.094455
1.676000,0.097675
1.676500,0.097675
1.677000,0.089302
1.677500,0.073201
1.678000,0.060320
1.678500,0.048083
1.679000,0.028118
1.679500,0.003966
1.680000,0.023610
1.680500,0.048727
1.681000,0.077066
1.681500,0.090590
1.682000,0.088658
1.682500,0.084794
1.683000,0.078354
1.683500,0.073845
1.684000,0.072557
1.684500,0.068371
1.685000,0.070303
1.685500,0.066439
1.686000,0.057744
1.686500,0.043253
1.687000,0.030050
1.687500,0.016203
1.688000,0.006220
1.688500,0.010729
1.689000,0.027796
1.689500,0.049694
1.690000,0.064507
1.690500,0.070947
1.691000,0.071913
1.691500,0.064507
1.692000,0.062252
1.692500,0.051948
1.693000,0.038101
1.693500,0.025542
1.694000,0.011051
1.694500,0.000424
1.695000,0.007187
1.695500,0.011051
1.696000,0.014915
1.696500,0.016525
1.697000,0.020711
1.697500,0.033270
1.698000,0.046151
1.698500,0.052914
1.699000,0.055490
1.699500,0.058710
1.700000,0.057422
1.700500,0.059354
1.701000,0.053558
1.701500,0.049050
1.702000,0.042609
1.702500,0.029406
1.703000,0.022322
1.703500,0.024576
1.704000,0.034880
1.704500,0.031982
1.705000,0.017491
1.705500,0.005576
1.706000,0.033270
1.706500,0.057422
1.707000,0.064507
1.707500,0.061286
1.708000,0.063219
1.708500,0.069659
1.709000,0.071591
1.709500,0.071913
1.710000,0.066761
1.710500,0.054202
1.711000,0.040999
1.711500,0.024576
1.712000,0.013627
1.712500,0.011373
1.713000,0.009763
1.713500,0.007187
1.714000,0.033270
1.714500,0.056134
1.715000,0.065473
1.715500,0.066761
1.716000,0.064507
1.716500,0.063219
1.717000,0.064507
1.717500,0.069015
1.718000,0.067083
1.718500,0.060642
1.719000,0.051948
1.719500,0.029084
1.720000,0.009763
1.720500,0.002678
1.721000,0.008153
1.721500,0.022000
1.722000,0.035847
1.722500,0.055168
1.723000,0.071269
1.723500,0.079964
1.724000,0.069981
1.724500,0.063863
1.725000,0.059676
1.725500,0.062897
1.726000,0.069015
1.726500,0.072557
1.727000,0.073201
1.727500,0.060642
1.728000,0.043253
1.728500,0.030694
1.729000,0.017169
1.729500,0.007187
1.730000,0.028440
1.730500,0.038745
1.731000,0.046151
1.731500,0.058066
1.732000,0.072879
1.732500,0.083828
1.733000,0.087048
1.733500,0.087692
1.734000,0.081896
1.734500,0.074167
1.735000,0.061608
1.735500,0.046795
1.736000,0.025220
1.736500,0.004610
1.737000,0.008475
1.737500,0.017813
1.738000,0.030050
1.738500,0.043253
1.739000,0.056134
1.739500,0.062252
1.740000,0.056778
1.740500,0.055812
1.741000,0.064829
1.741500,0.070303
1.742000,0.078032
1.742500,0.078354
1.743000,0.074167
1.743500,0.066761
1.744000,0.053880
1.744500,0.037457
1.745000,0.017169
1.745500,0.003000
1.746000,0.003644
1.746500,0.004288
1.747000,0.004932
1.747500,0.015881
1.748000,0.031016
1.748500,0.036813
1.749000,0.040355
1.749500,0.046151
1.750000,0.052592
1.750500,0.059998
1.751000,0.069659
1.751500,0.070625
1.752000,0.068693
1.752500,0.059032
1.753000,0.040355
1.753500,0.026830
1.754000,0.018135
1.754500,0.006542
1.755000,0.013627
1.755500,0.043253
1.756000,0.060964
1.756500,0.069015
1.757000,0.065473
1.757500,0.058388
1.758000,0.055812
1.758500,0.062252
1.759000,0.067405
1.759500,0.067405
1.760000,0.061608
1.760500,0.052914
1.761000,0.037135
1.761500,0.012339
1.762000,0.001712
1.762500,0.018457
1.763000,0.031338
1.763500,0.044219
1.764000,0.058066
1.764500,0.068371
1.765000,0.074489
1.765500,0.076099
1.766000,0.081896
1.766500,0.082862
1.767000,0.076099
1.767500,0.077388
1.768000,0.074489
1.768500,0.069659
1.769000,0.061608
1.769500,0.045829
1.770000,0.031338
1.770500,0.010729
1.771000,0.010407
1.771500,0.027796
1.772000,0.042931
1.772500,0.057100
1.773000,0.067727
1.773500,0.073845
1.774000,0.078032
1.774500,0.082540
1.775000,0.085438
1.775500,0.074489
1.776000,0.061286
1.776500,0.062897
1.777000,0.058388
1.777500,0.043575
1.778000,0.027796
1.778500,0.006864
1.779000,0.006864
1.779500,0.010407
1.780000,0.016203
1.780500,0.031982
1.781000,0.046473
1.781500,0.052270
1.782000,0.053236
1.782500,0.055490
1.783000,0.055490
1.783500,0.066439
1.784000,0.078354
1.784500,0.077710
1.785000,0.073845
1.785500,0.059676
1.786000,0.041965
1.786500,0.027152
1.787000,0.011695
1.787500,0.006542
1.788000,0.022644
1.788500,0.036169
1.789000,0.047117
1.789500,0.062252
1.790000,0.070625
1.790500,0.077710
1.791000,0.081896
1.791500,0.078998
1.792000,0.077388
1.792500,0.071269
1.793000,0.067727
1.793500,0.065473
1.794000,0.056456
1.794500,0.046151
1.795000,0.033592
1.795500,0.025864
1.796000,0.014271
1.796500,0.004288
1.797000,0.020389
1.797500,0.042609
1.798000,0.059032
1.798500,0.068693
1.799000,0.075133
1.799500,0.081574
1.800000,0.085116
1.800500,0.084472
1.801000,0.072235
1.801500,0.061608
1.802000,0.046151
1.802500,0.036491
1.803000,0.024898
1.803500,0.006864
1.804000,0.004932
1.804500,0.025542
1.805000,0.032948
1.805500,0.031338
1.806000,0.036813
1.806500,0.043253
1.807000,0.050660
1.807500,0.059998
1.808000,0.059998
1.808500,0.051948
1.809000,0.042287
1.809500,0.044541
1.810000,0.046795
1.810500,0.046473
1.811000,0.042609
1.811500,0.037457
1.812000,0.031016
1.812500,0.026830
1.813000,0.023932
1.813500,0.023288
1.814000,0.023288
1.814500,0.017491
1.815000,0.004288
1.815500,0.019101
1.816000,0.043575
1.816500,0.064185
1.817000,0.080286
1.817500,0.086404
1.818000,0.088336
1.818500,0.092845
1.819000,0.087048
1.819500,0.072879
1.820000,0.052914
1.820500,0.040999
1.821000,0.030694
1.821500,0.022322
1.822000,0.007187
1.822500,0.010407
1.823000,0.027796
1.823500,0.033592
1.824000,0.040999
1.824500,0.049050
1.825000,0.056778
1.825500,0.067083
1.826000,0.069659
1.826500,0.070625
1.827000,0.064507
1.827500,0.056456
1.828000,0.042931
1.828500,0.029084
1.829000,0.016847
1.829500,0.003644
1.830000,0.012017
1.830500,0.029406
1.831000,0.050660
1.831500,0.063863
1.832000,0.069015
1.832500,0.075133
1.833000,0.076743
1.833500,0.081252
1.834000,0.085116
1.834500,0.080930
1.835000,0.072235
1.835500,0.059354
1.836000,0.044219
1.836500,0.031338
1.837000,0.023610
1.837500,0.024254
1.838000,0.028118
1.838500,0.029406
1.839000,0.018779
1.839500,0.002356
1.840000,0.021356
1.840500,0.041643
1.841000,0.060642
1.841500,0.074489
1.842000,0.085438
1.842500,0.092201
1.843000,0.091879
1.843500,0.084794
1.844000,0.070303
1.844500,0.053880
1.845000,0.039067
1.845500,0.031016
1.846000,0.020389
1.846500,0.015237
1.847000,0.011051
1.847500,0.002678
1.848000,0.025542
1.848500,0.044219
1.849000,0.057422
1.849500,0.068371
1.850000,0.073523
1.850500,0.072879
1.851000,0.065151
1.851500,0.053880
1.852000,0.045829
1.852500,0.040033
1.853000,0.032626
1.853500,0.029728
1.854000,0.021033
1.854500,0.016203
1.855000,0.002034
1.855500,0.017169
1.856000,0.031338
1.856500,0.033270
1.857000,0.040355
1.857500,0.054846
1.858000,0.072557
1.858500,0.085438
1.859000,0.092201
1.859500,0.097997
1.860000,0.100251
1.860500,0.096387
1.861000,0.085116
1.861500,0.069015
1.862000,0.057100
1.862500,0.047117
1.863000,0.029728
1.863500,0.008153
1.864000,0.012983
1.864500,0.042287
1.865000,0.055812
1.865500,0.068371
1.866000,0.081896
1.866500,0.084150
1.867000,0.090913
1.867500,0.093811
1.868000,0.087692
1.868500,0.082218
1.869000,0.068049
1.869500,0.050338
1.870000,0.032948
1.870500,0.014593
1.871000,0.005576
1.871500,0.023610
1.872000,0.037457
1.872500,0.053236
1.873000,0.066117
1.873500,0.077066
1.874000,0.081896
1.874500,0.084472
1.875000,0.080608
1.875500,0.071913
1.876000,0.066761
1.876500,0.066439
1.877000,0.077388
1.877500,0.075133
1.878000,0.053236
1.878500,0.031982
1.879000,0.018779
1.879500,0.009763
1.880000,0.004288
1.880500,0.018457
1.881000,0.037779
1.881500,0.046473
1.882000,0.050660
1.882500,0.059032
1.883000,0.069981
1.883500,0.078998
1.884000,0.083506
1.884500,0.084150
1.885000,0.084472
1.885500,0.078676
1.886000,0.070947
1.886500,0.051626
1.887000,0.026508
1.887500,0.006542
1.888000,0.002034
1.888500,0.004610
1.889000,0.016203
1.889500,0.035847
1.890000,0.049372
1.890500,0.057100
1.891000,0.060642
1.891500,0.059354
1.892000,0.060964
1.892500,0.059998
1.893000,0.053558
1.893500,0.042609
1.894000,0.030372
1.894500,0.022966
1.895000,0.018779
1.895500,0.011051
1.896000,0.003966
1.896500,0.002034
1.897000,0.019745
1.897500,0.041643
1.898000,0.051948
1.898500,0.053558
1.899000,0.049372
1.899500,0.062252
1.900000,0.077066
1.900500,0.092845
1.901000,0.100895
1.901500,0.102827
1.902000,0.098319
1.902500,0.085116
1.903000,0.063541
1.903500,0.039711
1.904000,0.016847
1.904500,0.004610
1.905000,0.017813
1.905500,0.026830
1.906000,0.039711
1.906500,0.055490
1.907000,0.066439
1.907500,0.075777
1.908000,0.077710
1.908500,0.083184
1.909000,0.092523
1.909500,0.096065
1.910000,0.091557
1.910500,0.089302
1.911000,0.069337
1.911500,0.051626
1.912000,0.039711
1.912500,0.023288
1.913000,0.007831
1.913500,0.002678
1.914000,0.019101
1.914500,0.041321
1.915000,0.050982
1.915500,0.063219
1.916000,0.076099
1.916500,0.085760
1.917000,0.091879
1.917500,0.103149
1.918000,0.103793
1.918500,0.099285
1.919000,0.091235
1.919500,0.072235
1.920000,0.053558
1.920500,0.028440
1.921000,0.006864
1.921500,0.027474
1.922000,0.045829
1.922500,0.064507
1.923000,0.076421
1.923500,0.087370
1.924000,0.088980
1.924500,0.087048
1.925000,0.081574
1.925500,0.079964
1.926000,0.071591
1.926500,0.071591
1.927000,0.067727
1.927500,0.057100
1.928000,0.041321
1.928500,0.028440
1.929000,0.028440
1.929500,0.017813
1.930000,0.007187
1.930500,0.013305
1.931000,0.036491
1.931500,0.054846
1.932000,0.060964
1.932500,0.067727
1.933000,0.076743
1.933500,0.083506
1.934000,0.080286
1.934500,0.071269
1.935000,0.066117
1.935500,0.060964
1.936000,0.050016
1.936500,0.036813
1.937000,0.022644
1.937500,0.005898
1.938000,0.009763
1.938500,0.027152
1.939000,0.045829
1.939500,0.066761
1.940000,0.075455
1.940500,0.076099
1.941000,0.076099
1.941500,0.076099
1.942000,0.077710
1.942500,0.073523
1.943000,0.060320
1.943500,0.053880
1.944000,0.039389
1.944500,0.025864
1.945000,0.021356
1.945500,0.022322
1.946000,0.015237
1.946500,0.012983
1.947000,0.007831
1.947500,0.003966
1.948000,0.020711
1.948500,0.030050
1.949000,0.040999
1.949500,0.053558
1.950000,0.063541
1.950500,0.068049
1.951000,0.070303
1.951500,0.071591
1.952000,0.075455
1.952500,0.075777
1.953000,0.069337
1.953500,0.056456
1.954000,0.041965
1.954500,0.024898
1.955000,0.006542
1.955500,0.008475
1.956000,0.022644
1.956500,0.034236
1.957000,0.042287
1.957500,0.055168
1.958000,0.064185
1.958500,0.070625
1.959000,0.071591
1.959500,0.068049
1.960000,0.057744
1.960500,0.049694
1.961000,0.041321
1.961500,0.030050
1.962000,0.017169
1.962500,0.008153
1.963000,-0.002152
1.963500,0.013949
1.964000,0.025864
1.964500,0.031660
1.965000,0.042287
1.965500,0.055168
1.966000,0.070625
1.966500,0.076099
1.967000,0.082540
1.967500,0.088336
1.968000,0.089302
1.968500,0.080930
1.969000,0.070303
1.969500,0.063219
1.970000,0.049694
1.970500,0.033592
1.971000,0.019745
1.971500,0.010729
1.972000,0.004288
1.972500,0.014593
1.973000,0.030372
1.973500,0.046473
1.974000,0.057422
1.974500,0.064829
1.975000,0.071913
1.975500,0.076743
1.976000,0.073201
1.976500,0.066439
1.977000,0.064507
1.977500,0.060320
1.978000,0.056456
1.978500,0.043897
1.979000,0.021033
1.979500,0.006864
1.980000,0.026830
1.980500,0.037135
1.981000,0.047439
1.981500,0.053558
1.982000,0.049694
1.982500,0.042931
1.983000,0.039067
1.983500,0.041643
1.984000,0.046151
1.984500,0.048083
1.985000,0.045829
1.985500,0.042931
1.986000,0.045507
1.986500,0.049694
1.987000,0.039389
1.987500,0.022644
1.988000,0.002034
1.988500,0.020067
1.989000,0.038423
1.989500,0.049050
1.990000,0.049050
1.990500,0.057422
1.991000,0.069337
1.991500,0.076421
1.992000,0.094455
1.992500,0.103471
1.993000,0.103793
1.993500,0.095743
1.994000,0.088336
1.994500,0.072879
1.995000,0.047117
1.995500,0.024898
1.996000,0.002678
1.996500,0.020067
1.997000,0.030694
1.997500,0.033270
1.998000,0.036169
1.998500,0.041643
1.999000,0.048727
1.999500,0.057100
2.000000,0.069981
2.000500,0.079964
2.001000,0.074811
2.001500,0.060964
2.002000,0.049372
2.002500,0.035525
2.003000,0.021678
2.003500,0.005898
2.004000,0.002034
2.004500,0.006864
2.005000,0.017491
2.005500,0.025864
2.006000,0.038423
2.006500,0.054524
2.007000,0.060964
2.007500,0.060964
2.008000,0.067727
2.008500,0.074811
2.009000,0.081574
2.009500,0.077388
2.010000,0.060642
2.010500,0.052592
2.011000,0.043575
2.011500,0.037135
2.012000,0.029406
2.012500,0.024898
2.013000,0.016525
2.013500,0.010085
2.014000,0.006864
2.014500,0.031338
2.015000,0.045829
2.015500,0.057422
2.016000,0.066761
2.016500,0.071913
2.017000,0.077710
2.017500,0.079642
2.018000,0.082218
2.018500,0.072557
2.019000,0.053880
2.019500,0.027796
2.020000,0.009119
2.020500,0.002678
2.021000,0.009763
2.021500,0.017813
2.022000,0.022644
2.022500,0.029728
2.023000,0.037779
2.023500,0.039389
2.024000,0.044541
2.024500,0.049372
2.025000,0.054846
2.025500,0.062897
2.026000,0.058710
2.026500,0.051304
2.027000,0.041965
2.027500,0.031982
2.028000,0.017491
2.028500,0.006220
2.029000,0.007831
2.029500,0.019423
2.030000,0.030050
2.030500,0.040999
2.031000,0.053558
2.031500,0.064829
2.032000,0.069015
2.032500,0.067727
2.033000,0.073523
2.033500,0.077710
2.034000,0.087048
2.034500,0.089302
2.035000,0.093167
2.035500,0.085438
2.036000,0.070303
2.036500,0.050660
2.037000,0.028762
2.037500,0.007831
2.038000,0.009441
2.038500,0.022966
2.039000,0.038745
2.039500,0.055168
2.040000,0.069659
2.040500,0.074167
2.041000,0.072879
2.041500,0.069015
2.042000,0.072235
2.042500,0.070947
2.043000,0.064507
2.043500,0.048727
2.044000,0.031982
2.044500,0.008797
2.045000,0.013627
2.045500,0.016847
2.046000,0.016525
2.046500,0.015559
2.047000,0.018135
2.047500,0.033592
2.048000,0.054202
2.048500,0.061286
2.049000,0.059354
2.049500,0.058066
2.050000,0.057744
2.050500,0.059354
2.051000,0.053236
2.051500,0.036491
2.052000,0.029406
2.052500,0.035525
2.053000,0.037457
2.053500,0.028762
2.054000,0.010407
2.054500,0.013627
2.055000,0.032626
2.055500,0.045507
2.056000,0.057744
2.056500,0.068693
2.057000,0.084472
2.057500,0.092201
2.058000,0.096709
2.058500,0.094455
2.059000,0.073523
2.059500,0.061286
2.060000,0.056778
2.060500,0.060320
2.061000,0.057744
2.061500,0.044219
2.062000,0.025220
2.062500,0.011051
2.063000,-0.003440
2.063500,0.023932
2.064000,0.044219
2.064500,0.055168
2.065000,0.059354
2.065500,0.055490
2.066000,0.051304
2.066500,0.046151
2.067000,0.038745
2.067500,0.036813
2.068000,0.033914
2.068500,0.034880
2.069000,0.034558
2.069500,0.026508
2.070000,0.013949
2.070500,0.003322
2.071000,0.010407
2.071500,0.010729
2.072000,0.008797
2.072500,0.012017
2.073000,0.020711
2.073500,0.026830
2.074000,0.037779
2.074500,0.047117
2.075000,0.059998
2.075500,0.069981
2.076000,0.070625
2.076500,0.065151
2.077000,0.064829
2.077500,0.059354
2.078000,0.050338
2.078500,0.040033
2.079000,0.029406
2.079500,0.022966
2.080000,0.012017
2.080500,-0.000220
2.081000,0.016525
2.081500,0.026830
2.082000,0.036169
2.082500,0.044541
2.083000,0.049694
2.083500,0.056134
2.084000,0.060642
2.084500,0.064507
2.085000,0.066439
2.085500,0.069981
2.086000,0.053880
2.086500,0.030372
2.087000,0.015237
2.087500,0.003000
2.088000,0.011051
2.088500,0.022322
2.089000,0.031982
2.089500,0.042609
2.090000,0.050338
2.090500,0.059676
2.091000,0.069981
2.091500,0.076099
2.092000,0.077066
2.092500,0.076421
2.093000,0.070625
2.093500,0.061608
2.094000,0.054524
2.094500,0.040999
2.095000,0.026508
2.095500,0.013949
2.096000,-0.001830
2.096500,0.016525
2.097000,0.037457
2.097500,0.056134
2.098000,0.071913
2.098500,0.080608
2.099000,0.085116
2.099500,0.088980
2.100000,0.088658
2.100500,0.090590
2.101000,0.091235
2.101500,0.088014
2.102000,0.081252
2.102500,0.067405
2.103000,0.049694
2.103500,0.031338
2.104000,0.017169
2.104500,0.006542
2.105000,0.002678
2.105500,0.013627
2.106000,0.033270
2.106500,0.051626
2.107000,0.059354
2.107500,0.063541
2.108000,0.066439
2.108500,0.070303
2.109000,0.072235
2.109500,0.064829
2.110000,0.050338
2.110500,0.042931
2.111000,0.033592
2.111500,0.020067
2.112000,0.007831
2.112500,0.001712
2.113000,0.000424
2.113500,0.009763
2.114000,0.025220
2.114500,0.043575
2.115000,0.053236
2.115500,0.056456
2.116000,0.069659
2.116500,0.070625
2.117000,0.068049
2.117500,0.059676
2.118000,0.053236
2.118500,0.052914
2.119000,0.043253
2.119500,0.038101
2.120000,0.029728
2.120500,0.017491
2.121000,0.011373
2.121500,0.009119
2.122000,0.006542
2.122500,0.012017
2.123000,0.036491
2.123500,0.063219
2.124000,0.078998
2.124500,0.090913
2.125000,0.097353
2.125500,0.103793
2.126000,0.103471
2.126500,0.096387
2.127000,0.083506
2.127500,0.075777
2.128000,0.066439
2.128500,0.046151
2.129000,0.022644
2.129500,0.003000
2.130000,0.012983
2.130500,0.024898
2.131000,0.038101
2.131500,0.045185
2.132000,0.048405
2.132500,0.059032
2.133000,0.069981
2.133500,0.079964
2.134000,0.087370
2.134500,0.087692
2.135000,0.077710
2.135500,0.065795
2.136000,0.049694
2.136500,0.030050
2.137000,0.012339
2.137500,0.001390
2.138000,0.004610
2.138500,0.005576
2.139000,0.006542
2.139500,0.017491
2.140000,0.037457
2.140500,0.048405
2.141000,0.055490
2.141500,0.059998
2.142000,0.061286
2.142500,0.058710
2.143000,0.064507
2.143500,0.070947
2.144000,0.069659
2.144500,0.063541
2.145000,0.063541
2.145500,0.060642
2.146000,0.056456
2.146500,0.046473
2.147000,0.038745
2.147500,0.021678
2.148000,0.002356
2.148500,0.028762
2.149000,0.041965
2.149500,0.050338
2.150000,0.052914
2.150500,0.060320
2.151000,0.063541
2.151500,0.068371
2.152000,0.075777
2.152500,0.081574
2.153000,0.071591
2.153500,0.055490
2.154000,0.039711
2.154500,0.016203
2.155000,0.009763
2.155500,0.028118
2.156000,0.048083
2.156500,0.060320
2.157000,0.066117
2.157500,0.068693
2.158000,0.070625
2.158500,0.075455
2.159000,0.081574
2.159500,0.080286
2.160000,0.072557
2.160500,0.064185
2.161000,0.053880
2.161500,0.044863
2.162000,0.025220
2.162500,0.007831
2.163000,0.009441
2.163500,0.024576
2.164000,0.038745
2.164500,0.054202
2.165000,0.061608
2.165500,0.062252
2.166000,0.074489
2.166500,0.086404
2.167000,0.097353
2.167500,0.101861
2.168000,0.097031
2.168500,0.090913
2.169000,0.082540
2.169500,0.069337
2.170000,0.051304
2.170500,0.031982
2.171000,0.018135
2.171500,0.007509
2.172000,0.007509
2.172500,0.019745
2.173000,0.032304
2.173500,0.045507
2.174000,0.052914
2.174500,0.058710
2.175000,0.064507
2.175500,0.067727
2.176000,0.068371
2.176500,0.070625
2.177000,0.069981
2.177500,0.063541
2.178000,0.047117
2.178500,0.034236
2.179000,0.016203
2.179500,-0.001508
2.180000,0.019745
2.180500,0.035203
2.181000,0.056134
2.181500,0.074167
2.182000,0.079320
2.182500,0.081252
2.183000,0.077388
2.183500,0.075777
2.184000,0.072879
2.184500,0.059354
2.185000,0.055490
2.185500,0.052914
2.186000,0.041643
2.186500,0.025542
2.187000,0.008475
2.187500,0.003322
2.188000,0.014593
2.188500,0.018779
2.189000,0.021678
2.189500,0.039389
2.190000,0.056134
2.190500,0.060964
2.191000,0.063863
2.191500,0.069015
2.192000,0.067727
2.192500,0.061608
2.193000,0.071913
2.193500,0.073201
2.194000,0.066761
2.194500,0.055490
2.195000,0.043575
2.195500,0.037779
2.196000,0.022644
2.196500,-0.000542
2.197000,0.020067
2.197500,0.040355
2.198000,0.051304
2.198500,0.057100
2.199000,0.060964
2.199500,0.057422
2.200000,0.051948
2.200500,0.054202
2.201000,0.058710
2.201500,0.053558
2.202000,0.063219
2.202500,0.067727
2.203000,0.059998
2.203500,0.039711
2.204000,0.022000
2.204500,0.008797
2.205000,0.005254
2.205500,0.020067
2.206000,0.048405
2.206500,0.069659
2.207000,0.081896
2.207500,0.081896
2.208000,0.081896
2.208500,0.090913
2.209000,0.099285
2.209500,0.098319
2.210000,0.093167
2.210500,0.082218
2.211000,0.062574
2.211500,0.041643
2.212000,0.027796
2.212500,0.017813
2.213000,0.003322
2.213500,0.014271
2.214000,0.033914
2.214500,0.059676
2.215000,0.073523
2.215500,0.081574
2.216000,0.083184
2.216500,0.076421
2.217000,0.072235
2.217500,0.075133
2.218000,0.073523
2.218500,0.065473
2.219000,0.050660
2.219500,0.037779
2.220000,0.022644
2.220500,0.012339
2.221000,0.003322
2.221500,0.007831
2.222000,0.015881
2.222500,0.034236
2.223000,0.055168
2.223500,0.075133
2.224000,0.085116
2.224500,0.086726
2.225000,0.084794
2.225500,0.083506
2.226000,0.078354
2.226500,0.070625
2.227000,0.063541
2.227500,0.054202
2.228000,0.046795
2.228500,0.034880
2.229000,0.017491
2.229500,0.004932
2.230000,0.005898
2.230500,0.020711
2.231000,0.035847
2.231500,0.051626
2.232000,0.063541
2.232500,0.075455
2.233000,0.082862
2.233500,0.084472
2.234000,0.082218
2.234500,0.079642
2.235000,0.077388
2.235500,0.071591
2.236000,0.056134
2.236500,0.035525
2.237000,0.023610
2.237500,0.022322
2.238000,0.017169
2.238500,0.007831
2.239000,0.005576
2.239500,0.022966
2.240000,0.036813
2.240500,0.044219
2.241000,0.050660
2.241500,0.053236
2.242000,0.054846
2.242500,0.052270
2.243000,0.044219
2.243500,0.037135
2.244000,0.031982
2.244500,0.022644
2.245000,0.015559
2.245500,0.008475
2.246000,-0.001830
2.246500,0.007831
2.247000,0.013949
2.247500,0.026186
2.248000,0.040355
2.248500,0.050338
2.249000,0.057744
2.249500,0.057422
2.250000,0.056456
2.250500,0.051948
2.251000,0.043575
2.251500,0.040355
2.252000,0.042287
2.252500,0.043575
2.253000,0.036491
2.253500,0.030372
2.254000,0.029084
2.254500,0.032304
2.255000,0.033914
2.255500,0.025864
2.256000,0.004610
2.256500,0.022966
2.257000,0.051626
2.257500,0.064507
2.258000,0.069015
2.258500,0.074811
2.259000,0.083828
2.259500,0.090590
2.260000,0.093167
2.260500,0.092523
2.261000,0.087370
2.261500,0.074811
2.262000,0.061286
2.262500,0.050338
2.263000,0.036491
2.263500,0.012661
2.264000,0.019423
2.264500,0.037457
2.265000,0.054524
2.265500,0.075133
2.266000,0.078998
2.266500,0.083506
2.267000,0.083506
2.267500,0.077388
2.268000,0.065473
2.268500,0.046473
2.269000,0.034880
2.269500,0.026186
2.270000,0.018457
2.270500,0.003966
2.271000,0.008475
2.271500,0.016203
2.272000,0.027796
2.272500,0.035847
2.273000,0.051948
2.273500,0.064829
2.274000,0.071913
2.274500,0.067727
2.275000,0.065473
2.275500,0.067405
2.276000,0.062897
2.276500,0.062897
2.277000,0.056778
2.277500,0.055812
2.278000,0.047761
2.278500,0.036491
2.279000,0.018135
2.279500,-0.003440
2.280000,0.021033
2.280500,0.032304
2.281000,0.049050
2.281500,0.058066
2.282000,0.063219
2.282500,0.061608
2.283000,0.058388
2.283500,0.055490
2.284000,0.055812
2.284500,0.054524
2.285000,0.059032
2.285500,0.058066
2.286000,0.046151
2.286500,0.036813
2.287000,0.027796
2.287500,0.019423
2.288000,0.009119
2.288500,0.009119
2.289000,0.032304
2.289500,0.053880
2.290000,0.069015
2.290500,0.078032
2.291000,0.080930
2.291500,0.084794
2.292000,0.090268
2.292500,0.086404
2.293000,0.075133
2.293500,0.064829
2.294000,0.047761
2.294500,0.032626
2.295000,0.022000
2.295500,0.014271
2.296000,0.007509
2.296500,-0.001830
2.297000,0.014915
2.297500,0.030372
2.298000,0.048727
2.298500,0.060642
2.299000,0.064507
2.299500,0.066761
2.300000,0.067405
2.300500,0.072557
2.301000,0.073201
2.301500,0.073201
2.302000,0.068049
2.302500,0.059032
2.303000,0.047439
2.303500,0.038745
2.304000,0.031982
2.304500,0.025864
2.305000,0.019423
2.305500,0.013627
2.306000,0.007831
2.306500,0.029728
2.307000,0.049050
2.307500,0.060642
2.308000,0.064185
2.308500,0.058710
2.309000,0.057744
2.309500,0.053236
2.310000,0.053558
2.310500,0.052270
2.311000,0.046151
2.311500,0.027796
2.312000,0.008153
2.312500,-0.002152
2.313000,0.009763
2.313500,0.019423
2.314000,0.032626
2.314500,0.044541
2.315000,0.050660
2.315500,0.061608
2.316000,0.068049
2.316500,0.071913
2.317000,0.074811
2.317500,0.078354
2.318000,0.073845
2.318500,0.064829
2.319000,0.058066
2.319500,0.041965
2.320000,0.028762
2.320500,0.025864
2.321000,0.013627
2.321500,0.010729
2.322000,0.026830
2.322500,0.042287
2.323000,0.067727
2.323500,0.089624
2.324000,0.094777
2.324500,0.098641
2.325000,0.106370
2.325500,0.108624
2.326000,0.101539
2.326500,0.089946
2.327000,0.062897
2.327500,0.022966
2.328000,-0.001508
2.328500,0.013949
2.329000,0.014593
2.329500,0.005576
2.330000,0.006542
2.330500,0.020711
2.331000,0.042609
2.331500,0.061286
2.332000,0.075777
2.332500,0.075777
2.333000,0.063219
2.333500,0.054846
2.334000,0.058388
2.334500,0.058066
2.335000,0.049694
2.335500,0.037779
2.336000,0.037135
2.336500,0.040355
2.337000,0.032304
2.337500,0.015881
2.338000,0.002034
2.338500,0.018779
2.339000,0.039711
2.339500,0.059032
2.340000,0.073201
2.340500,0.077388
2.341000,0.079964
2.341500,0.078998
2.342000,0.082218
2.342500,0.082540
2.343000,0.079964
2.343500,0.080608
2.344000,0.072557
2.344500,0.056134
2.345000,0.037135
2.345500,0.022000
2.346000,0.010729
2.346500,0.003644
2.347000,0.005898
2.347500,0.024898
2.348000,0.049050
2.348500,0.062574
2.349000,0.069337
2.349500,0.069337
2.350000,0.063863
2.350500,0.067405
2.351000,0.069659
2.351500,0.062252
2.352000,0.051304
2.352500,0.044863
2.353000,0.042931
2.353500,0.039067
2.354000,0.027474
2.354500,0.012017
2.355000,0.004932
2.355500,0.012661
2.356000,0.023288
2.356500,0.038745
2.357000,0.055490
2.357500,0.066761
2.358000,0.079964
2.358500,0.079964
2.359000,0.078032
2.359500,0.074811
2.360000,0.081574
2.360500,0.080286
2.361000,0.068049
2.361500,0.051626
2.362000,0.033270
2.362500,0.006864
2.363000,0.007509
2.363500,0.015559
2.364000,0.023932
2.364500,0.040999
2.365000,0.051626
2.365500,0.051304
2.366000,0.058710
2.366500,0.066439
2.367000,0.073523
2.367500,0.081574
2.368000,0.085116
2.368500,0.082862
2.369000,0.077388
2.369500,0.062897
2.370000,0.044219
2.370500,0.032304
2.371000,0.021356
2.371500,0.012017
2.372000,0.006864
2.372500,0.007509
2.373000,0.025864
2.373500,0.035525
2.374000,0.037457
2.374500,0.042609
2.375000,0.045829
2.375500,0.054846
2.376000,0.064829
2.376500,0.065795
2.377000,0.066761
2.377500,0.061286
2.378000,0.044541
2.378500,0.029084
2.379000,0.016525
2.379500,0.007187
2.380000,-0.001508
2.380500,0.012339
2.381000,0.024254
2.381500,0.041965
2.382000,0.054202
2.382500,0.066439
2.383000,0.074489
2.383500,0.079320
2.384000,0.089624
2.384500,0.094777
2.385000,0.090913
2.385500,0.076099
2.386000,0.064185
2.386500,0.047761
2.387000,0.029406
2.387500,0.010407
2.388000,0.003644
2.388500,0.011373
2.389000,0.020067
2.389500,0.036491
2.390000,0.058710
2.390500,0.062252
2.391000,0.063863
2.391500,0.071591
2.392000,0.085760
2.392500,0.092201
2.393000,0.096387
2.393500,0.090590
2.394000,0.077066
2.394500,0.062574
2.395000,0.042287
2.395500,0.022322
2.396000,0.018457
2.396500,0.008153
2.397000,0.013305
2.397500,0.033914
2.398000,0.047117
2.398500,0.059676
2.399000,0.068693
2.399500,0.068693
2.400000,0.056456
2.400500,0.047761
2.401000,0.038101
2.401500,0.034558
2.402000,0.033270
2.402500,0.023288
2.403000,0.016203
2.403500,0.016525
2.404000,0.005898
2.404500,0.005576
2.405000,0.012017
2.405500,0.010085
2.406000,0.011051
2.406500,0.020389
2.407000,0.033914
2.407500,0.046795
2.408000,0.063541
2.408500,0.078998
2.409000,0.087692
2.409500,0.083828
2.410000,0.076099
2.410500,0.069337
2.411000,0.058388
2.411500,0.045507
2.412000,0.026830
2.412500,0.006864
2.413000,0.012017
2.413500,0.016847
2.414000,0.017813
2.414500,0.032948
2.415000,0.050660
2.415500,0.062897
2.416000,0.067727
2.416500,0.069659
2.417000,0.072557
2.417500,0.067405
2.418000,0.062252
2.418500,0.055812
2.419000,0.048405
2.419500,0.040999
2.420000,0.027152
2.420500,0.014271
2.421000,0.002356
2.421500,0.014271
2.422000,0.029406
2.422500,0.040355
2.423000,0.053558
2.423500,0.066117
2.424000,0.074167
2.424500,0.075455
2.425000,0.071269
2.425500,0.078676
2.426000,0.094455
2.426500,0.104115
2.427000,0.100251
2.427500,0.080930
2.428000,0.055168
2.428500,0.031982
2.429000,0.009763
2.429500,0.011373
2.430000,0.021033
2.430500,0.028440
2.431000,0.041965
2.431500,0.054846
2.432000,0.065151
2.432500,0.079642
2.433000,0.084150
2.433500,0.085116
2.434000,0.082218
2.434500,0.077066
2.435000,0.073523
2.435500,0.068693
2.436000,0.068049
2.436500,0.061930
2.437000,0.048083
2.437500,0.036491
2.438000,0.023288
2.438500,0.009441
2.439000,0.005576
2.439500,0.025542
2.440000,0.037457
2.440500,0.048083
2.441000,0.054202
2.441500,0.059676
2.442000,0.059998
2.442500,0.060642
2.443000,0.059676
2.443500,0.059676
2.444000,0.058710
2.444500,0.046151
2.445000,0.030694
2.445500,0.015237
2.446000,0.005898
2.446500,0.005898
2.447000,0.017491
2.447500,0.031982
2.448000,0.046795
2.448500,0.054524
2.449000,0.058066
2.449500,0.060964
2.450000,0.061286
2.450500,0.066117
2.451000,0.068693
2.451500,0.068371
2.452000,0.062252
2.452500,0.061608
2.453000,0.058066
2.453500,0.050016
2.454000,0.037135
2.454500,0.027152
2.455000,0.017491
2.455500,0.008797
2.456000,0.004288
2.456500,0.021678
2.457000,0.040999
2.457500,0.050016
2.458000,0.059998
2.458500,0.072557
2.459000,0.084150
2.459500,0.082218
2.460000,0.075455
2.460500,0.066439
2.461000,0.054846
2.461500,0.049050
2.462000,0.031660
2.462500,0.017813
2.463000,0.012983
2.463500,0.013949
2.464000,0.006542
2.464500,0.012339
2.465000,0.030050
2.465500,0.042287
2.466000,0.045185
2.466500,0.042287
2.467000,0.040999
2.467500,0.056456
2.468000,0.073523
2.468500,0.072879
2.469000,0.060642
2.469500,0.044863
2.470000,0.025220
2.470500,0.007831
2.471000,0.003966
2.471500,0.014271
2.472000,0.027474
2.472500,0.041321
2.473000,0.053558
2.473500,0.060964
2.474000,0.065473
2.474500,0.072879
2.475000,0.077710
2.475500,0.074489
2.476000,0.067727
2.476500,0.065795
2.477000,0.059354
2.477500,0.057422
2.478000,0.051948
2.478500,0.046473
2.479000,0.042931
2.479500,0.037135
2.480000,0.023610
2.480500,0.013305
2.481000,-0.001186
2.481500,0.017169
2.482000,0.031338
2.482500,0.042609
2.483000,0.063863
2.483500,0.087048
2.484000,0.111522
2.484500,0.127301
2.485000,0.123437
2.485500,0.108302
2.486000,0.087370
2.486500,0.064829
2.487000,0.038423
2.487500,0.016525
2.488000,0.006542
2.488500,0.026186
2.489000,0.041965
2.489500,0.052270
2.490000,0.057744
2.490500,0.058066
2.491000,0.057100
2.491500,0.058710
2.492000,0.067405
2.492500,0.069015
2.493000,0.062252
2.493500,0.060642
2.494000,0.056456
2.494500,0.052270
2.495000,0.050338
2.495500,0.039711
2.496000,0.033270
2.496500,0.028118
2.497000,0.018457
2.497500,-0.003762
2.498000,0.033270
2.498500,0.051948
2.499000,0.063541
2.499500,0.071591
2.500000,0.071591
2.500500,0.076099
2.501000,0.082862
2.501500,0.081574
2.502000,0.073845
2.502500,0.062897
2.503000,0.049694
2.503500,0.034558
2.504000,0.020389
2.504500,0.006542
2.505000,0.012661
2.505500,0.022322
2.506000,0.035203
2.506500,0.054202
2.507000,0.062897
2.507500,0.066761
2.508000,0.062897
2.508500,0.057422
2.509000,0.059354
2.509500,0.056134
2.510000,0.051948
2.510500,0.046795
2.511000,0.040999
2.511500,0.032304
2.512000,0.022966
2.512500,0.011051
2.513000,-0.000864
2.513500,0.007831
2.514000,0.021356
2.514500,0.044541
2.515000,0.059354
2.515500,0.070625
2.516000,0.075455
2.516500,0.078998
2.517000,0.083828
2.517500,0.093167
2.518000,0.093167
2.518500,0.088980
2.519000,0.076743
2.519500,0.062897
2.520000,0.047117
2.520500,0.027474
2.521000,0.013627
2.521500,0.005898
2.522000,0.016847
2.522500,0.029728
2.523000,0.036813
2.523500,0.040355
2.524000,0.044863
2.524500,0.051948
2.525000,0.064829
2.525500,0.078354
2.526000,0.090268
2.526500,0.090590
2.527000,0.085438
2.527500,0.069981
2.528000,0.045507
2.528500,0.023932
2.529000,0.010729
2.529500,-0.002796
2.530000,0.003000
2.530500,0.001068
2.531000,0.009441
2.531500,0.027152
2.532000,0.046151
2.532500,0.055812
2.533000,0.060320
2.533500,0.064507
2.534000,0.072879
2.534500,0.077388
2.535000,0.079320
2.535500,0.067727
2.536000,0.054846
2.536500,0.039389
2.537000,0.027474
2.537500,0.013627
2.538000,0.001390
2.538500,0.022644
2.539000,0.040033
2.539500,0.047117
2.540000,0.041321
2.540500,0.040677
2.541000,0.056134
2.541500,0.073845
2.542000,0.090590
2.542500,0.084472
2.543000,0.071269
2.543500,0.064185
2.544000,0.059032
2.544500,0.069981
2.545000,0.062897
2.545500,0.054202
2.546000,0.048727
2.546500,0.038423
2.547000,0.022966
2.547500,0.006220
2.548000,0.038745
2.548500,0.054524
2.549000,0.055490
2.549500,0.057100
2.550000,0.058710
2.550500,0.065151
2.551000,0.078032
2.551500,0.085438
2.552000,0.078676
2.552500,0.058388
2.553000,0.042931
2.553500,0.024576
2.554000,0.012339
2.554500,0.003966
2.555000,0.003000
2.555500,0.008153
2.556000,0.023932
2.556500,0.043575
2.557000,0.059998
2.557500,0.066761
2.558000,0.064185
2.558500,0.059676
2.559000,0.066117
2.559500,0.068049
2.560000,0.070625
2.560500,0.070303
2.561000,0.062252
2.561500,0.053558
2.562000,0.047439
2.562500,0.037779
2.563000,0.018779
2.563500,0.005254
2.564000,0.015237
2.564500,0.037135
2.565000,0.050338
2.565500,0.061608
2.566000,0.071269
2.566500,0.085760
2.567000,0.085760
2.567500,0.085116
2.568000,0.081574
2.568500,0.069015
2.569000,0.059354
2.569500,0.055812
2.570000,0.040033
2.570500,0.025864
2.571000,0.006220
2.571500,0.017169
2.572000,0.031982
2.572500,0.039389
2.573000,0.048405
2.573500,0.055168
2.574000,0.059998
2.574500,0.069337
2.575000,0.068693
2.575500,0.063863
2.576000,0.064829
2.576500,0.061930
2.577000,0.058066
2.577500,0.052592
2.578000,0.044863
2.578500,0.034236
2.579000,0.022966
2.579500,0.009763
2.580000,0.006220
2.580500,0.027152
2.581000,0.048405
2.581500,0.064829
2.582000,0.075133
2.582500,0.083184
2.583000,0.086404
2.583500,0.083184
2.584000,0.085116
2.584500,0.084150
2.585000,0.079964
2.585500,0.075455
2.586000,0.068371
2.586500,0.050982
2.587000,0.032304
2.587500,0.019745
2.588000,0.009441
2.588500,0.003322
2.589000,0.007509
2.589500,0.021678
2.590000,0.040999
2.590500,0.051626
2.591000,0.050338
2.591500,0.047117
2.592000,0.045507
2.592500,0.056778
2.593000,0.059354
2.593500,0.059354
2.594000,0.058066
2.594500,0.048405
2.595000,0.041965
2.595500,0.035525
2.596000,0.028440
2.596500,0.015881
2.597000,0.000424
2.597500,0.019101
2.598000,0.036169
2.598500,0.045185
2.599000,0.043253
2.599500,0.047761
2.600000,0.050982
2.600500,0.058066
2.601000,0.077066
2.601500,0.093489
2.602000,0.100895
2.602500,0.097997
2.603000,0.083184
2.603500,0.064185
2.604000,0.043575
2.604500,0.022644
2.605000,0.002678
2.605500,0.029728
2.606000,0.056134
2.606500,0.069659
2.607000,0.078354
2.607500,0.080930
2.608000,0.078998
2.608500,0.077066
2.609000,0.079320
2.609500,0.082540
2.610000,0.086726
2.610500,0.081896
2.611000,0.069981
2.611500,0.050338
2.612000,0.027796
2.612500,0.014593
2.613000,0.006542
2.613500,-0.000542
2.614000,0.006220
2.614500,0.012339
2.615000,0.024898
2.615500,0.036813
2.616000,0.042931
2.616500,0.048083
2.617000,0.044863
2.617500,0.040033
2.618000,0.045185
2.618500,0.052914
2.619000,0.055168
2.619500,0.056456
2.620000,0.050660
2.620500,0.040355
2.621000,0.028118
2.621500,0.015881
2.622000,0.003000
2.622500,0.017491
2.623000,0.039711
2.623500,0.053558
2.624000,0.062897
2.624500,0.067405
2.625000,0.077066
2.625500,0.084794
2.626000,0.085116
2.626500,0.069981
2.627000,0.057422
2.627500,0.054524
2.628000,0.047761
2.628500,0.032948
2.629000,0.021678
2.629500,0.013305
2.630000,0.011051
2.630500,0.005254
2.631000,0.009763
2.631500,0.025542
2.632000,0.040033
2.632500,0.051948
2.633000,0.059354
2.633500,0.067083
2.634000,0.077066
2.634500,0.076099
2.635000,0.070303
2.635500,0.066117
2.636000,0.059676
2.636500,0.049050
2.637000,0.039389
2.637500,0.028440
2.638000,0.016847
2.638500,0.005254
2.639000,0.022000
2.639500,0.043253
2.640000,0.060964
2.640500,0.077388
2.641000,0.087048
2.641500,0.093489
2.642000,0.098641
2.642500,0.105726
2.643000,0.102505
2.643500,0.079964
2.644000,0.058388
2.644500,0.036813
2.645000,0.013305
2.645500,0.001712
2.646000,0.006864
2.646500,0.009441
2.647000,0.012661
2.647500,0.022322
2.648000,0.035847
2.648500,0.053880
2.649000,0.066761
2.649500,0.077066
2.650000,0.080930
2.650500,0.084472
2.651000,0.086404
2.651500,0.085438
2.652000,0.080608
2.652500,0.074811
2.653000,0.062897
2.653500,0.047761
2.654000,0.034558
2.654500,0.026186
2.655000,0.009763
2.655500,0.004288
2.656000,0.017491
2.656500,0.031016
2.657000,0.041643
2.657500,0.051304
2.658000,0.057100
2.658500,0.064185
2.659000,0.066761
2.659500,0.066761
2.660000,0.063219
2.660500,0.059354
2.661000,0.054202
2.661500,0.044541
2.662000,0.030050
2.662500,0.013627
2.663000,-0.002796
2.663500,0.020389
2.664000,0.030050
2.664500,0.044863
2.665000,0.060964
2.665500,0.075133
2.666000,0.078998
2.666500,0.078354
2.667000,0.071913
2.667500,0.068693
2.668000,0.060320
2.668500,0.044541
2.669000,0.027474
2.669500,0.008153
2.670000,0.015881
2.670500,0.030050
2.671000,0.034880
2.671500,0.031338
2.672000,0.033592
2.672500,0.035847
2.673000,0.038423
2.673500,0.049372
2.674000,0.056134
2.674500,0.067405
2.675000,0.070625
2.675500,0.055490
2.676000,0.039067
2.676500,0.033914
2.677000,0.029406
2.677500,0.026830
2.678000,0.023610
2.678500,0.018779
2.679000,0.014915
2.679500,0.009441
2.680000,-0.000220
2.680500,0.012983
2.681000,0.037779
2.681500,0.057422
2.682000,0.070303
2.682500,0.074167
2.683000,0.071913
2.683500,0.067727
2.684000,0.056134
2.684500,0.047117
2.685000,0.037135
2.685500,0.027152
2.686000,0.019101
2.686500,0.016203
2.687000,0.016203
2.687500,0.013305
2.688000,0.002034
2.688500,0.019745
2.689000,0.039711
2.689500,0.061286
2.690000,0.077710
2.690500,0.080286
2.691000,0.074167
2.691500,0.066117
2.692000,0.061930
2.692500,0.062252
2.693000,0.059998
2.693500,0.059676
2.694000,0.053880
2.694500,0.040355
2.695000,0.031016
2.695500,0.019745
2.696000,0.004610
2.696500,0.012983
2.697000,0.025542
2.697500,0.034558
2.698000,0.039389
2.698500,0.044219
2.699000,0.046795
2.699500,0.051948
2.700000,0.056456
2.700500,0.061608
2.701000,0.061930
2.701500,0.064185
2.702000,0.059676
2.702500,0.050016
2.703000,0.044219
2.703500,0.029084
2.704000,0.015559
2.704500,0.012017
2.705000,0.011051
2.705500,0.004610
2.706000,0.013305
2.706500,0.036813
2.707000,0.059998
2.707500,0.072235
2.708000,0.075455
2.708500,0.069659
2.709000,0.063219
2.709500,0.063219
2.710000,0.060642
2.710500,0.057422
2.711000,0.050660
2.711500,0.039711
2.712000,0.030372
2.712500,0.022644
2.713000,0.015559
2.713500,-0.001186
2.714000,0.014593
2.714500,0.034236
2.715000,0.050016
2.715500,0.069337
2.716000,0.084150
2.716500,0.094777
2.717000,0.096387
2.717500,0.096387
2.718000,0.083506
2.718500,0.069659
2.719000,0.061286
2.719500,0.048083
2.720000,0.035525
2.720500,0.024576
2.721000,0.013627
2.721500,0.003322
2.722000,0.016525
2.722500,0.029406
2.723000,0.045829
2.723500,0.054202
2.724000,0.060320
2.724500,0.062574
2.725000,0.063219
2.725500,0.054846
2.726000,0.046151
2.726500,0.043897
2.727000,0.037779
2.727500,0.033270
2.728000,0.031660
2.728500,0.031338
2.729000,0.024898
2.729500,0.011051
2.730000,0.004288
2.730500,0.003322
2.731000,0.012983
2.731500,0.024898
2.732000,0.035847
2.732500,0.045507
2.733000,0.050982
2.733500,0.056778
2.734000,0.066117
2.734500,0.074811
2.735000,0.071269
2.735500,0.067727
2.736000,0.060964
2.736500,0.051948
2.737000,0.035203
2.737500,0.020711
2.738000,0.008797
2.738500,0.002034
2.739000,0.013627
2.739500,0.027796
2.740000,0.046795
2.740500,0.060320
2.741000,0.070947
2.741500,0.077710
2.742000,0.075777
2.742500,0.080608
2.743000,0.079642
2.743500,0.074167
2.744000,0.062897
2.744500,0.052592
2.745000,0.042609
2.745500,0.034236
2.746000,0.024898
2.746500,0.021033
2.747000,0.007187
2.747500,0.006542
2.748000,0.020067
2.748500,0.036169
2.749000,0.047439
2.749500,0.054202
2.750000,0.062897
2.750500,0.069981
2.751000,0.076099
2.751500,0.066439
2.752000,0.043253
2.752500,0.033270
2.753000,0.030050
2.753500,0.029728
2.754000,0.028440
2.754500,0.020067
2.755000,0.005576
2.755500,0.007831
2.756000,0.017169
2.756500,0.028118
2.757000,0.030372
2.757500,0.033270
2.758000,0.046473
2.758500,0.060642
2.759000,0.066761
2.759500,0.069337
2.760000,0.071591
2.760500,0.071913
2.761000,0.067083
2.761500,0.055168
2.762000,0.044219
2.762500,0.032626
2.763000,0.022000
2.763500,0.014593
2.764000,0.011373
2.764500,-0.001508
2.765000,0.017169
2.765500,0.033592
2.766000,0.042931
2.766500,0.057422
2.767000,0.073201
2.767500,0.087048
2.768000,0.089624
2.768500,0.084150
2.769000,0.075133
2.769500,0.070947
2.770000,0.066117
2.770500,0.053236
2.771000,0.034880
2.771500,0.016847
2.772000,0.006542
2.772500,0.025864
2.773000,0.050338
2.773500,0.065473
2.774000,0.072557
2.774500,0.074489
2.775000,0.067405
2.775500,0.067083
2.776000,0.068371
2.776500,0.072879
2.777000,0.065473
2.777500,0.051626
2.778000,0.037457
2.778500,0.027796
2.779000,0.021356
2.779500,0.015881
2.780000,0.004610
2.780500,0.006542
2.781000,0.022966
2.781500,0.042609
2.782000,0.056456
2.782500,0.064507
2.783000,0.064507
2.783500,0.066761
2.784000,0.062252
2.784500,0.058066
2.785000,0.049050
2.785500,0.041321
2.786000,0.038423
2.786500,0.034236
2.787000,0.033914
2.787500,0.031660
2.788000,0.022322
2.788500,0.014593
2.789000,0.010407
2.789500,0.003322
2.790000,0.017491
2.790500,0.031016
2.791000,0.046151
2.791500,0.055812
2.792000,0.056778
2.792500,0.056456
2.793000,0.054524
2.793500,0.050982
2.794000,0.050982
2.794500,0.050660
2.795000,0.044219
2.795500,0.034236
2.796000,0.024254
2.796500,0.012017
2.797000,-0.002796
2.797500,0.023288
2.798000,0.040999
2.798500,0.057100
2.799000,0.061608
2.799500,0.065151
2.800000,0.065473
2.800500,0.065795
2.801000,0.068693
2.801500,0.069015
2.802000,0.066761
2.802500,0.063863
2.803000,0.057100
2.803500,0.044863
2.804000,0.030050
2.804500,0.019101
2.805000,0.007187
2.805500,0.004932
2.806000,0.020067
2.806500,0.038745
2.807000,0.056456
2.807500,0.066117
2.808000,0.062897
2.808500,0.061608
2.809000,0.060320
2.809500,0.060964
2.810000,0.056456
2.810500,0.054524
2.811000,0.047439
2.811500,0.046795
2.812000,0.049372
2.812500,0.048083
2.813000,0.040355
2.813500,0.029728
2.814000,0.022000
2.814500,0.011051
2.815000,0.000102
2.815500,0.008475
2.816000,0.027152
2.816500,0.047117
2.817000,0.061286
2.817500,0.073201
2.818000,0.075777
2.818500,0.075133
2.819000,0.077710
2.819500,0.078998
2.820000,0.068693
2.820500,0.045185
2.821000,0.025220
2.821500,0.009441
2.822000,0.008153
2.822500,0.021033
2.823000,0.036491
2.823500,0.046151
2.824000,0.052270
2.824500,0.059676
2.825000,0.068371
2.825500,0.074167
2.826000,0.078676
2.826500,0.077066
2.827000,0.071269
2.827500,0.070625
2.828000,0.062574
2.828500,0.043575
2.829000,0.034236
2.829500,0.025864
2.830000,0.015881
2.830500,0.007187
2.831000,0.008153
2.831500,0.032304
2.832000,0.051304
2.832500,0.062897
2.833000,0.065795
2.833500,0.052592
2.834000,0.042931
2.834500,0.042609
2.835000,0.044863
2.835500,0.040677
2.836000,0.033914
2.836500,0.029084
2.837000,0.030050
2.837500,0.036491
2.838000,0.031660
2.838500,0.016847
2.839000,0.004288
2.839500,0.010407
2.840000,0.021356
2.840500,0.032626
2.841000,0.039711
2.841500,0.045185
2.842000,0.053558
2.842500,0.059998
2.843000,0.065795
2.843500,0.064185
2.844000,0.062252
2.844500,0.060642
2.845000,0.047439
2.845500,0.031660
2.846000,0.022322
2.846500,0.015559
2.847000,0.014915
2.847500,0.008153
2.848000,0.005898
2.848500,0.022644
2.849000,0.031016
2.849500,0.037135
2.850000,0.042287
2.850500,0.045185
2.851000,0.052914
2.851500,0.059998
2.852000,0.066761
2.852500,0.078032
2.853000,0.082862
2.853500,0.078676
2.854000,0.068693
2.854500,0.050660
2.855000,0.028118
2.855500,0.004288
2.856000,0.023932
2.856500,0.044541
2.857000,0.057422
2.857500,0.064185
2.858000,0.065795
2.858500,0.068693
2.859000,0.069659
2.859500,0.067083
2.860000,0.063541
2.860500,0.061286
2.861000,0.058066
2.861500,0.047761
2.862000,0.038101
2.862500,0.020389
2.863000,0.007187
2.863500,-0.002152
2.864000,0.014271
2.864500,0.028762
2.865000,0.049694
2.865500,0.061608
2.866000,0.068049
2.866500,0.074811
2.867000,0.076099
2.867500,0.080286
2.868000,0.082540
2.868500,0.076743
2.869000,0.068693
2.869500,0.060964
2.870000,0.047117
2.870500,0.033592
2.871000,0.026508
2.871500,0.015881
2.872000,0.007831
2.872500,0.002678
2.873000,0.014271
2.873500,0.032948
2.874000,0.047117
2.874500,0.057744
2.875000,0.069659
2.875500,0.073523
2.876000,0.072557
2.876500,0.072557
2.877000,0.070947
2.877500,0.066439
2.878000,0.059998
2.878500,0.046473
2.879000,0.030050
2.879500,0.019101
2.880000,0.004288
2.880500,0.014593
2.881000,0.026508
2.881500,0.027474
2.882000,0.028440
2.882500,0.033914
2.883000,0.041643
2.883500,0.042287
2.884000,0.045185
2.884500,0.050982
2.885000,0.052270
2.885500,0.046795
2.886000,0.034558
2.886500,0.014915
2.887000,0.005898
2.887500,0.002678
2.888000,0.003322
2.888500,0.001712
2.889000,0.003966
2.889500,0.008797
2.890000,0.022966
2.890500,0.040033
2.891000,0.053558
2.891500,0.061930
2.892000,0.067083
2.892500,0.060964
2.893000,0.051948
2.893500,0.043253
2.894000,0.039711
2.894500,0.037779
2.895000,0.034558
2.895500,0.036813
2.896000,0.031016
2.896500,0.021356
2.897000,0.017169
2.897500,0.004288
2.898000,0.019101
2.898500,0.048083
2.899000,0.064829
2.899500,0.071269
2.900000,0.073523
2.900500,0.077388
2.901000,0.073845
2.901500,0.063541
2.902000,0.053558
2.902500,0.057422
2.903000,0.059354
2.903500,0.050338
2.904000,0.039067
2.904500,0.016525
2.905000,0.009441
2.905500,0.018457
2.906000,0.031338
2.906500,0.048405
2.907000,0.063541
2.907500,0.071591
2.908000,0.075777
2.908500,0.073845
2.909000,0.072879
2.909500,0.070303
2.910000,0.068049
2.910500,0.060642
2.911000,0.052914
2.911500,0.049694
2.912000,0.050660
2.912500,0.043253
2.913000,0.030694
2.913500,0.016203
2.914000,0.005254
2.914500,0.018135
2.915000,0.041643
2.915500,0.055168
2.916000,0.061608
2.916500,0.059354
2.917000,0.059354
2.917500,0.064185
2.918000,0.074811
2.918500,0.076421
2.919000,0.066117
2.919500,0.059032
2.920000,0.046473
2.920500,0.027796
2.921000,0.011051
2.921500,0.002356
2.922000,0.002678
2.922500,0.007831
2.923000,0.018457
2.923500,0.025542
2.924000,0.029406
2.924500,0.037779
2.925000,0.042931
2.925500,0.046795
2.926000,0.054202
2.926500,0.061930
2.927000,0.063863
2.927500,0.060320
2.928000,0.053880
2.928500,0.041965
2.929000,0.027152
2.929500,0.017813
2.930000,0.007509
2.930500,0.006220
2.931000,0.020389
2.931500,0.038101
2.932000,0.054524
2.932500,0.062897
2.933000,0.068371
2.933500,0.073523
2.934000,0.077388
2.934500,0.069015
2.935000,0.059998
2.935500,0.053558
2.936000,0.053558
2.936500,0.049372
2.937000,0.043575
2.937500,0.029084
2.938000,0.013627
2.938500,0.005254
2.939000,0.003322
2.939500,0.014593
2.940000,0.030694
2.940500,0.042931
2.941000,0.049372
2.941500,0.054524
2.942000,0.059032
2.942500,0.065795
2.943000,0.069015
2.943500,0.070303
2.944000,0.067727
2.944500,0.066439
2.945000,0.056456
2.945500,0.040999
2.946000,0.018457
2.946500,0.013627
2.947000,0.038423
2.947500,0.055490
2.948000,0.068371
2.948500,0.068049
2.949000,0.062897
2.949500,0.052270
2.950000,0.047117
2.950500,0.045829
2.951000,0.047761
2.951500,0.041965
2.952000,0.033270
2.952500,0.025542
2.953000,0.019101
2.953500,0.007831
2.954000,0.007831
2.954500,0.018779
2.955000,0.027796
2.955500,0.037457
2.956000,0.041965
2.956500,0.048405
2.957000,0.044863
2.957500,0.038423
2.958000,0.034558
2.958500,0.039389
2.959000,0.057744
2.959500,0.074811
2.960000,0.082218
2.960500,0.074489
2.961000,0.066439
2.961500,0.058066
2.962000,0.046795
2.962500,0.036169
2.963000,0.017813
2.963500,0.003000
2.964000,0.010729
2.964500,0.024576
2.965000,0.039067
2.965500,0.050660
2.966000,0.059032
2.966500,0.059998
2.967000,0.065795
2.967500,0.065795
2.968000,0.064185
2.968500,0.064185
2.969000,0.068049
2.969500,0.059998
2.970000,0.041321
2.970500,0.022322
2.971000,0.011695
2.971500,0.012661
2.972000,0.013305
2.972500,0.005254
2.973000,0.016525
2.973500,0.033914
2.974000,0.051626
2.974500,0.065795
2.975000,0.071591
2.975500,0.068693
2.976000,0.068371
2.976500,0.069981
2.977000,0.063219
2.977500,0.062574
2.978000,0.056778
2.978500,0.046151
2.979000,0.028118
2.979500,0.010729
2.980000,0.003644
2.980500,0.021356
2.981000,0.030372
2.981500,0.038423
2.982000,0.040033
2.982500,0.048405
2.983000,0.058710
2.983500,0.064507
2.984000,0.062574
2.984500,0.060642
2.985000,0.060320
2.985500,0.049372
2.986000,0.030694
2.986500,0.013627
2.987000,0.005254
2.987500,0.002678
2.988000,0.003966
2.988500,0.009119
2.989000,0.012661
2.989500,0.024898
2.990000,0.041321
2.990500,0.048083
2.991000,0.049372
2.991500,0.042931
2.992000,0.031338
2.992500,0.027796
2.993000,0.031982
2.993500,0.036813
2.994000,0.034558
2.994500,0.036491
2.995000,0.034236
2.995500,0.031338
2.996000,0.032626
2.996500,0.029084
2.997000,0.020389
2.997500,0.005254
2.998000,0.018135
2.998500,0.035203
2.999000,0.050982
2.999500,0.062574
3.000000,0.076743
3.000500,0.085438
3.001000,0.090590
3.001500,0.092201
3.002000,0.085116
3.002500,0.071591
3.003000,0.053558
3.003500,0.040033
3.004000,0.023932
3.004500,0.018135
3.005000,0.015237
3.005500,0.011373
3.006000,0.004610
3.006500,0.007187
3.007000,0.020711
3.007500,0.034880
3.008000,0.047761
3.008500,0.060320
3.009000,0.064185
3.009500,0.072557
3.010000,0.075133
3.010500,0.072557
3.011000,0.068371
3.011500,0.062897
3.012000,0.049372
3.012500,0.038745
3.013000,0.029406
3.013500,0.016203
3.014000,0.002034
3.014500,0.012983
3.015000,0.031016
3.015500,0.046795
3.016000,0.050982
3.016500,0.059998
3.017000,0.067405
3.017500,0.078032
3.018000,0.085116
3.018500,0.085760
3.019000,0.083184
3.019500,0.077388
3.020000,0.063863
3.020500,0.046795
3.021000,0.028440
3.021500,0.014271
3.022000,0.006864
3.022500,0.023288
3.023000,0.043575
3.023500,0.059676
3.024000,0.073201
3.024500,0.081896
3.025000,0.084794
3.025500,0.082218
3.026000,0.074811
3.026500,0.072235
3.027000,0.057422
3.027500,0.041643
3.028000,0.033914
3.028500,0.029084
3.029000,0.024254
3.029500,0.010729
3.030000,0.006864
3.030500,0.020711
3.031000,0.027152
3.031500,0.031660
3.032000,0.031338
3.032500,0.032626
3.033000,0.028440
3.033500,0.029406
3.034000,0.032304
3.034500,0.034880
3.035000,0.038101
3.035500,0.040677
3.036000,0.036813
3.036500,0.025542
3.037000,0.018135
3.037500,0.002356
3.038000,0.003322
3.038500,0.002034
3.039000,0.003966
3.039500,0.028118
3.040000,0.056456
3.040500,0.065151
3.041000,0.069981
3.041500,0.061930
3.042000,0.059032
3.042500,0.065473
3.043000,0.066117
3.043500,0.069659
3.044000,0.067083
3.044500,0.054846
3.045000,0.045185
3.045500,0.031660
3.046000,0.026186
3.046500,0.017169
3.047000,0.009119
3.047500,-0.004406
3.048000,0.023932
3.048500,0.040999
3.049000,0.053236
3.049500,0.059998
3.050000,0.058710
3.050500,0.055490
3.051000,0.058388
3.051500,0.059998
3.052000,0.061608
3.052500,0.059354
3.053000,0.054202
3.053500,0.047439
3.054000,0.044863
3.054500,0.035525
3.055000,0.022644
3.055500,0.005898
3.056000,0.011695
3.056500,0.026186
3.057000,0.040355
3.057500,0.059354
3.058000,0.073201
3.058500,0.076743
3.059000,0.069659
3.059500,0.060320
3.060000,0.055168
3.060500,0.049694
3.061000,0.051948
3.061500,0.046473
3.062000,0.036491
3.062500,0.018135
3.063000,0.005898
3.063500,-0.004406
3.064000,0.016525
3.064500,0.031660
3.065000,0.041965
3.065500,0.051304
3.066000,0.058066
3.066500,0.051948
3.067000,0.049050
3.067500,0.058710
3.068000,0.069015
3.068500,0.071591
3.069000,0.061930
3.069500,0.053558
3.070000,0.040033
3.070500,0.030694
3.071000,0.023610
3.071500,0.018135
3.072000,0.010407
3.072500,0.001712
3.073000,0.014271
3.073500,0.028118
3.074000,0.039389
3.074500,0.049694
3.075000,0.057744
3.075500,0.060320
3.076000,0.063541
3.076500,0.065795
3.077000,0.064829
3.077500,0.061286
3.078000,0.051948
3.078500,0.042287
3.079000,0.029084
3.079500,0.013949
3.080000,0.000746
3.080500,0.012661
3.081000,0.027152
3.081500,0.043897
3.082000,0.056778
3.082500,0.062574
3.083000,0.068693
3.083500,0.070303
3.084000,0.068693
3.084500,0.066117
3.085000,0.064185
3.085500,0.060642
3.086000,0.060320
3.086500,0.054846
3.087000,0.047761
3.087500,0.035525
3.088000,0.025864
3.088500,0.019423
3.089000,0.016847
3.089500,0.007187
3.090000,0.007831
3.090500,0.031016
3.091000,0.051948
3.091500,0.061930
3.092000,0.066761
3.092500,0.067405
3.093000,0.073523
3.093500,0.072557
3.094000,0.067405
3.094500,0.068371
3.095000,0.072235
3.095500,0.062897
3.096000,0.040355
3.096500,0.023288
3.097000,0.009441
3.097500,0.006864
3.098000,0.006542
3.098500,0.025220
3.099000,0.046151
3.099500,0.055812
3.100000,0.051304
3.100500,0.042931
3.101000,0.040999
3.101500,0.038745
3.102000,0.035203
3.102500,0.037457
3.103000,0.035525
3.103500,0.028440
3.104000,0.019101
3.104500,0.003966
3.105000,0.002678
3.105500,0.001390
3.106000,0.005254
3.106500,0.015881
3.107000,0.023610
3.107500,0.033270
3.108000,0.035847
3.108500,0.041643
3.109000,0.052914
3.109500,0.069015
3.110000,0.084794
3.110500,0.088336
3.111000,0.078354
3.111500,0.067727
3.112000,0.052914
3.112500,0.044219
3.113000,0.036813
3.113500,0.031660
3.114000,0.013949
3.114500,0.004932
3.115000,0.026186
3.115500,0.043575
3.116000,0.061930
3.116500,0.085760
3.117000,0.093489
3.117500,0.094777
3.118000,0.090268
3.118500,0.077710
3.119000,0.065473
3.119500,0.063863
3.120000,0.056134
3.120500,0.048727
3.121000,0.036169
3.121500,0.021678
3.122000,0.005898
3.122500,0.012017
3.123000,0.030694
3.123500,0.045507
3.124000,0.053880
3.124500,0.056778
3.125000,0.064185
3.125500,0.065795
3.126000,0.075133
3.126500,0.080286
3.127000,0.090268
3.127500,0.088658
3.128000,0.080608
3.128500,0.059354
3.129000,0.034558
3.129500,0.018135
3.130000,0.012017
3.130500,0.006220
3.131000,0.004610
3.131500,0.022966
3.132000,0.037457
3.132500,0.049372
3.133000,0.059032
3.133500,0.064829
3.134000,0.070303
3.134500,0.072557
3.135000,0.072235
3.135500,0.066761
3.136000,0.055168
3.136500,0.039711
3.137000,0.020711
3.137500,0.011051
3.138000,0.009441
3.138500,0.005898
3.139000,0.004288
3.139500,0.014271
3.140000,0.022644
3.140500,0.031338
3.141000,0.042287
3.141500,0.055168
3.142000,0.059676
3.142500,0.063219
3.143000,0.064829
3.143500,0.065795
