LabVIEW Measurement,
Writer_Version,2
Reader_Version,2
Separator,Comma
Decimal_Separator,.
Multi_Headings,Yes
X_Columns,One
Time_Pref,Absolute
Operator,labuser
Date,2022/03/27
Time,18:17:59.089701449942888117
***End_of_Header***,
,
Channels,1,
Samples,20000,
Date,2022/03/27,
Time,18:17:59.089701449942888117,
Y_Unit_Label,Volts,
X_Dimension,Time,
X0,0.0000000000000000E+0,
Delta_X,0.000500,
***End_of_Header***,,
X_Value,Voltage,Comment
0.000000,0.054202
0.000500,0.053558
0.001000,0.055490
0.001500,0.053880
0.002000,0.049050
0.002500,0.042287
0.003000,0.030050
0.003500,0.019745
0.004000,0.009119
0.004500,0.004288
0.005000,0.005576
0.005500,0.012983
0.006000,0.022966
0.006500,0.033914
0.007000,0.040033
0.007500,0.047439
0.008000,0.050338
0.008500,0.054202
0.009000,0.057100
0.009500,0.057100
0.010000,0.053558
0.010500,0.052592
0.011000,0.047761
0.011500,0.036169
0.012000,0.028440
0.012500,0.015559
0.013000,0.006220
0.013500,0.001068
0.014000,0.015559
0.014500,0.026186
0.015000,0.036491
0.015500,0.042609
0.016000,0.049050
0.016500,0.052270
0.017000,0.055168
0.017500,0.055812
0.018000,0.054524
0.018500,0.051626
0.019000,0.045507
0.019500,0.034880
0.020000,0.023610
0.020500,0.014271
0.021000,0.008797
0.021500,0.003000
0.022000,0.006220
0.022500,0.017491
0.023000,0.028440
0.023500,0.033914
0.024000,0.042609
0.024500,0.047439
0.025000,0.050016
0.025500,0.052914
0.026000,0.055812
0.026500,0.058388
0.027000,0.058388
0.027500,0.052592
0.028000,0.043897
0.028500,0.034558
0.029000,0.022322
0.029500,0.010729
0.030000,-0.001186
0.030500,0.012339
0.031000,0.027474
0.031500,0.037457
0.032000,0.043897
0.032500,0.050982
0.033000,0.049372
0.033500,0.053236
0.034000,0.054846
0.034500,0.053236
0.035000,0.050982
0.035500,0.049372
0.036000,0.043897
0.036500,0.035203
0.037000,0.027796
0.037500,0.018135
0.038000,0.004610
0.038500,0.005576
0.039000,0.018135
0.039500,0.027152
0.040000,0.036169
0.040500,0.040355
0.041000,0.047439
0.041500,0.049694
0.042000,0.052914
0.042500,0.056456
0.043000,0.058066
0.043500,0.055168
0.044000,0.051948
0.044500,0.042931
0.045000,0.034236
0.045500,0.023932
0.046000,0.014915
0.046500,0.004610
0.047000,0.002678
0.047500,0.020389
0.048000,0.030372
0.048500,0.038745
0.049000,0.045829
0.049500,0.050982
0.050000,0.052592
0.050500,0.054202
0.051000,0.053558
0.051500,0.053558
0.052000,0.047439
0.052500,0.042287
0.053000,0.037779
0.053500,0.024576
0.054000,0.018135
0.054500,0.008475
0.055000,0.002356
0.055500,0.012983
0.056000,0.023288
0.056500,0.033270
0.057000,0.041965
0.057500,0.047761
0.058000,0.050660
0.058500,0.053236
0.059000,0.056778
0.059500,0.054202
0.060000,0.051626
0.060500,0.049372
0.061000,0.042609
0.061500,0.030694
0.062000,0.022966
0.062500,0.016525
0.063000,0.006864
0.063500,-0.002796
0.064000,0.014593
0.064500,0.022966
0.065000,0.035525
0.065500,0.044541
0.066000,0.047761
0.066500,0.046795
0.067000,0.053558
0.067500,0.057422
0.068000,0.055490
0.068500,0.053880
0.069000,0.048727
0.069500,0.040033
0.070000,0.030372
0.070500,0.025220
0.071000,0.011373
0.071500,0.003644
0.072000,0.006864
0.072500,0.019745
0.073000,0.031982
0.073500,0.041965
0.074000,0.045507
0.074500,0.048083
0.075000,0.053558
0.075500,0.055812
0.076000,0.056778
0.076500,0.054524
0.077000,0.050660
0.077500,0.046151
0.078000,0.038745
0.078500,0.030372
0.079000,0.020711
0.079500,0.012017
0.080000,0.003966
0.080500,0.009441
0.081000,0.019101
0.081500,0.029084
0.082000,0.038101
0.082500,0.045507
0.083000,0.050982
0.083500,0.056778
0.084000,0.057100
0.084500,0.057422
0.085000,0.054524
0.085500,0.049694
0.086000,0.041643
0.086500,0.031660
0.087000,0.022322
0.087500,0.012661
0.088000,0.003322
0.088500,0.005254
0.089000,0.017169
0.089500,0.027796
0.090000,0.036491
0.090500,0.042931
0.091000,0.048727
0.091500,0.051626
0.092000,0.053558
0.092500,0.057744
0.093000,0.054524
0.093500,0.053880
0.094000,0.050982
0.094500,0.041643
0.095000,0.029406
0.095500,0.019745
0.096000,0.012661
0.096500,0.003644
0.097000,0.006542
0.097500,0.018135
0.098000,0.031016
0.098500,0.038423
0.099000,0.043575
0.099500,0.048405
0.100000,0.051948
0.100500,0.054524
0.101000,0.057100
0.101500,0.053880
0.102000,0.049372
0.102500,0.040677
0.103000,0.029406
0.103500,0.021356
0.104000,0.013627
0.104500,0.006220
0.105000,0.002034
0.105500,0.009441
0.106000,0.018779
0.106500,0.030050
0.107000,0.041643
0.107500,0.045507
0.108000,0.048727
0.108500,0.050982
0.109000,0.054202
0.109500,0.053236
0.110000,0.051948
0.110500,0.048083
0.111000,0.040677
0.111500,0.032304
0.112000,0.023610
0.112500,0.019423
0.113000,0.009441
0.113500,0.002678
0.114000,0.011051
0.114500,0.023932
0.115000,0.035525
0.115500,0.045185
0.116000,0.048727
0.116500,0.051948
0.117000,0.055168
0.117500,0.056456
0.118000,0.051304
0.118500,0.052592
0.119000,0.049050
0.119500,0.038101
0.120000,0.029728
0.120500,0.019423
0.121000,0.011695
0.121500,0.003966
0.122000,0.005254
0.122500,0.020711
0.123000,0.028118
0.123500,0.036813
0.124000,0.042609
0.124500,0.047117
0.125000,0.050982
0.125500,0.055168
0.126000,0.058710
0.126500,0.052914
0.127000,0.052270
0.127500,0.045507
0.128000,0.037135
0.128500,0.027796
0.129000,0.017491
0.129500,0.009119
0.130000,0.002678
0.130500,0.008475
0.131000,0.021356
0.131500,0.031016
0.132000,0.039389
0.132500,0.044863
0.133000,0.047117
0.133500,0.053236
0.134000,0.056456
0.134500,0.053558
0.135000,0.053880
0.135500,0.049694
0.136000,0.041643
0.136500,0.034880
0.137000,0.022644
0.137500,0.015881
0.138000,0.008475
0.138500,0.001068
0.139000,0.014593
0.139500,0.025864
0.140000,0.034880
0.140500,0.043575
0.141000,0.045185
0.141500,0.048405
0.142000,0.053880
0.142500,0.055812
0.143000,0.053880
0.143500,0.052914
0.144000,0.050660
0.144500,0.040677
0.145000,0.031016
0.145500,0.022000
0.146000,0.013627
0.146500,0.003322
0.147000,0.001390
0.147500,0.017169
0.148000,0.029406
0.148500,0.035525
0.149000,0.042931
0.149500,0.047761
0.150000,0.052592
0.150500,0.054846
0.151000,0.056456
0.151500,0.054524
0.152000,0.051304
0.152500,0.046473
0.153000,0.036491
0.153500,0.027152
0.154000,0.017169
0.154500,0.009119
0.155000,0.001712
0.155500,0.011373
0.156000,0.024576
0.156500,0.032948
0.157000,0.041643
0.157500,0.047439
0.158000,0.051626
0.158500,0.054846
0.159000,0.057100
0.159500,0.056456
0.160000,0.054524
0.160500,0.052270
0.161000,0.045829
0.161500,0.037779
0.162000,0.026830
0.162500,0.019101
0.163000,0.010085
0.163500,0.000746
0.164000,0.014915
0.164500,0.025864
0.165000,0.036813
0.165500,0.043253
0.166000,0.047761
0.166500,0.048727
0.167000,0.053558
0.167500,0.055812
0.168000,0.054524
0.168500,0.052592
0.169000,0.047439
0.169500,0.037779
0.170000,0.030694
0.170500,0.021033
0.171000,0.012661
0.171500,0.005576
0.172000,0.008153
0.172500,0.021033
0.173000,0.034236
0.173500,0.039389
0.174000,0.046151
0.174500,0.049050
0.175000,0.053558
0.175500,0.053558
0.176000,0.056778
0.176500,0.055812
0.177000,0.052914
0.177500,0.047117
0.178000,0.037457
0.178500,0.027796
0.179000,0.021033
0.179500,0.009763
0.180000,0.000424
0.180500,0.007187
0.181000,0.018779
0.181500,0.030050
0.182000,0.037779
0.182500,0.047761
0.183000,0.052270
0.183500,0.057422
0.184000,0.059354
0.184500,0.058710
0.185000,0.056456
0.185500,0.052914
0.186000,0.043253
0.186500,0.031660
0.187000,0.018457
0.187500,0.006864
0.188000,0.003644
0.188500,0.005898
0.189000,0.013627
0.189500,0.022966
0.190000,0.029084
0.190500,0.036813
0.191000,0.043897
0.191500,0.048083
0.192000,0.053880
0.192500,0.056456
0.193000,0.058710
0.193500,0.055490
0.194000,0.049050
0.194500,0.039711
0.195000,0.032304
0.195500,0.022644
0.196000,0.014915
0.196500,0.005576
0.197000,-0.000864
0.197500,0.014915
0.198000,0.025220
0.198500,0.033270
0.199000,0.040999
0.199500,0.047439
0.200000,0.052592
0.200500,0.054202
0.201000,0.058066
0.201500,0.052914
0.202000,0.051626
0.202500,0.047439
0.203000,0.038745
0.203500,0.028440
0.204000,0.019423
0.204500,0.008475
0.205000,0.002678
0.205500,0.011695
0.206000,0.023932
0.206500,0.033592
0.207000,0.038101
0.207500,0.044541
0.208000,0.048405
0.208500,0.053880
0.209000,0.055490
0.209500,0.056456
0.210000,0.054846
0.210500,0.049050
0.211000,0.040999
0.211500,0.033592
0.212000,0.026186
0.212500,0.015881
0.213000,0.007831
0.213500,0.000102
0.214000,0.012983
0.214500,0.025542
0.215000,0.034880
0.215500,0.040355
0.216000,0.047761
0.216500,0.047761
0.217000,0.053236
0.217500,0.054202
0.218000,0.057744
0.218500,0.054202
0.219000,0.049050
0.219500,0.040355
0.220000,0.031660
0.220500,0.022000
0.221000,0.015559
0.221500,0.004610
0.222000,0.004610
0.222500,0.019423
0.223000,0.031660
0.223500,0.041643
0.224000,0.046795
0.224500,0.048405
0.225000,0.052592
0.225500,0.053880
0.226000,0.054846
0.226500,0.054202
0.227000,0.051626
0.227500,0.046151
0.228000,0.040677
0.228500,0.031016
0.229000,0.025220
0.229500,0.012339
0.230000,0.002034
0.230500,0.007509
0.231000,0.021033
0.231500,0.031338
0.232000,0.038745
0.232500,0.046151
0.233000,0.049050
0.233500,0.052914
0.234000,0.054524
0.234500,0.055168
0.235000,0.053558
0.235500,0.049372
0.236000,0.042931
0.236500,0.032626
0.237000,0.023288
0.237500,0.015237
0.238000,0.007187
0.238500,0.004288
0.239000,0.013949
0.239500,0.025864
0.240000,0.036813
0.240500,0.042931
0.241000,0.048727
0.241500,0.050982
0.242000,0.055812
0.242500,0.056134
0.243000,0.058710
0.243500,0.053236
0.244000,0.049694
0.244500,0.040999
0.245000,0.030050
0.245500,0.021033
0.246000,0.014593
0.246500,0.007509
0.247000,-0.001186
0.247500,0.016525
0.248000,0.028440
0.248500,0.036813
0.249000,0.043575
0.249500,0.048083
0.250000,0.050016
0.250500,0.055490
0.251000,0.054202
0.251500,0.053236
0.252000,0.050338
0.252500,0.045507
0.253000,0.037135
0.253500,0.026508
0.254000,0.020067
0.254500,0.010085
0.255000,0.005254
0.255500,0.010729
0.256000,0.021678
0.256500,0.031660
0.257000,0.042931
0.257500,0.046151
0.258000,0.048727
0.258500,0.054202
0.259000,0.053880
0.259500,0.056134
0.260000,0.052592
0.260500,0.048727
0.261000,0.042931
0.261500,0.034236
0.262000,0.026508
0.262500,0.019423
0.263000,0.007509
0.263500,0.000746
0.264000,0.010085
0.264500,0.023610
0.265000,0.031982
0.265500,0.038423
0.266000,0.043897
0.266500,0.047761
0.267000,0.054202
0.267500,0.058388
0.268000,0.055490
0.268500,0.052592
0.269000,0.047439
0.269500,0.038423
0.270000,0.030694
0.270500,0.022322
0.271000,0.013305
0.271500,0.006864
0.272000,0.002678
0.272500,0.012017
0.273000,0.027152
0.273500,0.036169
0.274000,0.044863
0.274500,0.051626
0.275000,0.057100
0.275500,0.063863
0.276000,0.062252
0.276500,0.056778
0.277000,0.051304
0.277500,0.046151
0.278000,0.039711
0.278500,0.031338
0.279000,0.021033
0.279500,0.010085
0.280000,0.003000
0.280500,0.007509
0.281000,0.020067
0.281500,0.032304
0.282000,0.042931
0.282500,0.049372
0.283000,0.048083
0.283500,0.051304
0.284000,0.053558
0.284500,0.055812
0.285000,0.054202
0.285500,0.051948
0.286000,0.043897
0.286500,0.036491
0.287000,0.027152
0.287500,0.019423
0.288000,0.009119
0.288500,0.003322
0.289000,0.012983
0.289500,0.024254
0.290000,0.034880
0.290500,0.043897
0.291000,0.047761
0.291500,0.050016
0.292000,0.056456
0.292500,0.057744
0.293000,0.057744
0.293500,0.055812
0.294000,0.056134
0.294500,0.043253
0.295000,0.032948
0.295500,0.024254
0.296000,0.012339
0.296500,0.003644
0.297000,0.007831
0.297500,0.016525
0.298000,0.026830
0.298500,0.033270
0.299000,0.041321
0.299500,0.046151
0.300000,0.051304
0.300500,0.055812
0.301000,0.056778
0.301500,0.056778
0.302000,0.051626
0.302500,0.046151
0.303000,0.037135
0.303500,0.027796
0.304000,0.019423
0.304500,0.012661
0.305000,0.005898
0.305500,0.007509
0.306000,0.021678
0.306500,0.033914
0.307000,0.041321
0.307500,0.048405
0.308000,0.050660
0.308500,0.052914
0.309000,0.054524
0.309500,0.054524
0.310000,0.052914
0.310500,0.050016
0.311000,0.042931
0.311500,0.034558
0.312000,0.025542
0.312500,0.015237
0.313000,0.009441
0.313500,0.001390
0.314000,0.010085
0.314500,0.022966
0.315000,0.033270
0.315500,0.040999
0.316000,0.045507
0.316500,0.048727
0.317000,0.054846
0.317500,0.053558
0.318000,0.053880
0.318500,0.051626
0.319000,0.049694
0.319500,0.041321
0.320000,0.032304
0.320500,0.022322
0.321000,0.015237
0.321500,0.006542
0.322000,0.003644
0.322500,0.017169
0.323000,0.027152
0.323500,0.036169
0.324000,0.042931
0.324500,0.048083
0.325000,0.047117
0.325500,0.054202
0.326000,0.055490
0.326500,0.054202
0.327000,0.053558
0.327500,0.049372
0.328000,0.039067
0.328500,0.030050
0.329000,0.021356
0.329500,0.012983
0.330000,0.006542
0.330500,0.005576
0.331000,0.018457
0.331500,0.029084
0.332000,0.036813
0.332500,0.043253
0.333000,0.045829
0.333500,0.056778
0.334000,0.052270
0.334500,0.054846
0.335000,0.052914
0.335500,0.049050
0.336000,0.042931
0.336500,0.033914
0.337000,0.025220
0.337500,0.017813
0.338000,0.009763
0.338500,0.001390
0.339000,0.011051
0.339500,0.021356
0.340000,0.031982
0.340500,0.040677
0.341000,0.045507
0.341500,0.049694
0.342000,0.057744
0.342500,0.059354
0.343000,0.056134
0.343500,0.053558
0.344000,0.049694
0.344500,0.039389
0.345000,0.032304
0.345500,0.022000
0.346000,0.015237
0.346500,0.008475
0.347000,0.000102
0.347500,0.010729
0.348000,0.022322
0.348500,0.031338
0.349000,0.037135
0.349500,0.045185
0.350000,0.050660
0.350500,0.057422
0.351000,0.056456
0.351500,0.057100
0.352000,0.055812
0.352500,0.048405
0.353000,0.038423
0.353500,0.025220
0.354000,0.017813
0.354500,0.010085
0.355000,0.003322
0.355500,0.004932
0.356000,0.016847
0.356500,0.030694
0.357000,0.041965
0.357500,0.048727
0.358000,0.052914
0.358500,0.058066
0.359000,0.058710
0.359500,0.055812
0.360000,0.052592
0.360500,0.052914
0.361000,0.047761
0.361500,0.038745
0.362000,0.026508
0.362500,0.018457
0.363000,0.006864
0.363500,-0.001508
0.364000,0.012983
0.364500,0.023932
0.365000,0.034880
0.365500,0.040999
0.366000,0.046151
0.366500,0.047761
0.367000,0.053880
0.367500,0.057422
0.368000,0.055490
0.368500,0.052270
0.369000,0.050660
0.369500,0.041321
0.370000,0.032948
0.370500,0.023932
0.371000,0.015559
0.371500,0.006220
0.372000,0.003322
0.372500,0.016525
0.373000,0.026830
0.373500,0.033914
0.374000,0.041965
0.374500,0.047761
0.375000,0.053558
0.375500,0.057744
0.376000,0.059676
0.376500,0.055490
0.377000,0.051626
0.377500,0.045829
0.378000,0.038423
0.378500,0.029728
0.379000,0.022000
0.379500,0.010729
0.380000,0.004288
0.380500,0.003322
0.381000,0.019101
0.381500,0.031660
0.382000,0.040677
0.382500,0.045185
0.383000,0.049372
0.383500,0.054202
0.384000,0.057100
0.384500,0.058388
0.385000,0.056134
0.385500,0.051948
0.386000,0.044541
0.386500,0.035525
0.387000,0.025542
0.387500,0.017491
0.388000,0.008475
0.388500,0.001712
0.389000,0.011373
0.389500,0.026186
0.390000,0.035525
0.390500,0.044219
0.391000,0.047439
0.391500,0.049694
0.392000,0.052914
0.392500,0.055812
0.393000,0.055812
0.393500,0.053558
0.394000,0.051304
0.394500,0.044863
0.395000,0.035525
0.395500,0.024254
0.396000,0.011373
0.396500,0.001712
0.397000,0.007187
0.397500,0.018779
0.398000,0.026508
0.398500,0.039067
0.399000,0.044219
0.399500,0.049050
0.400000,0.051948
0.400500,0.054202
0.401000,0.056778
0.401500,0.051304
0.402000,0.050660
0.402500,0.046795
0.403000,0.038423
0.403500,0.031016
0.404000,0.021356
0.404500,0.012339
0.405000,0.005576
0.405500,0.008475
0.406000,0.021356
0.406500,0.032626
0.407000,0.039067
0.407500,0.044541
0.408000,0.050338
0.408500,0.054202
0.409000,0.055812
0.409500,0.056134
0.410000,0.054524
0.410500,0.050338
0.411000,0.044863
0.411500,0.036491
0.412000,0.027796
0.412500,0.017491
0.413000,0.011373
0.413500,0.003644
0.414000,0.010085
0.414500,0.022322
0.415000,0.033270
0.415500,0.037779
0.416000,0.042931
0.416500,0.046795
0.417000,0.050982
0.417500,0.053558
0.418000,0.053558
0.418500,0.053236
0.419000,0.048405
0.419500,0.041643
0.420000,0.032948
0.420500,0.022966
0.421000,0.014271
0.421500,0.006220
0.422000,0.002356
0.422500,0.015237
0.423000,0.027796
0.423500,0.039067
0.424000,0.046473
0.424500,0.054202
0.425000,0.056134
0.425500,0.056778
0.426000,0.057100
0.426500,0.059998
0.427000,0.059676
0.427500,0.054524
0.428000,0.045507
0.428500,0.033592
0.429000,0.023932
0.429500,0.013627
0.430000,0.002034
0.430500,0.007187
0.431000,0.022000
0.431500,0.029728
0.432000,0.037457
0.432500,0.046151
0.433000,0.050982
0.433500,0.057744
0.434000,0.057422
0.434500,0.057744
0.435000,0.059354
0.435500,0.053558
0.436000,0.047117
0.436500,0.035525
0.437000,0.021033
0.437500,0.009763
0.438000,0.001390
0.438500,0.008153
0.439000,0.019745
0.439500,0.031338
0.440000,0.042287
0.440500,0.049050
0.441000,0.049694
0.441500,0.048405
0.442000,0.049372
0.442500,0.049050
0.443000,0.047439
0.443500,0.050016
0.444000,0.048727
0.444500,0.046151
0.445000,0.040355
0.445500,0.032626
0.446000,0.021033
0.446500,0.007509
0.447000,0.006542
0.447500,0.019745
0.448000,0.030050
0.448500,0.036169
0.449000,0.043253
0.449500,0.048727
0.450000,0.051626
0.450500,0.054846
0.451000,0.056134
0.451500,0.052914
0.452000,0.048727
0.452500,0.047117
0.453000,0.037135
0.453500,0.028440
0.454000,0.020389
0.454500,0.012017
0.455000,0.003644
0.455500,0.006542
0.456000,0.022644
0.456500,0.031338
0.457000,0.039389
0.457500,0.047761
0.458000,0.050016
0.458500,0.054202
0.459000,0.057100
0.459500,0.056778
0.460000,0.055812
0.460500,0.053236
0.461000,0.046151
0.461500,0.037457
0.462000,0.025864
0.462500,0.018457
0.463000,0.009763
0.463500,0.002356
0.464000,0.011051
0.464500,0.023610
0.465000,0.033592
0.465500,0.041321
0.466000,0.047761
0.466500,0.050338
0.467000,0.055168
0.467500,0.054846
0.468000,0.055812
0.468500,0.054202
0.469000,0.050660
0.469500,0.041965
0.470000,0.031982
0.470500,0.022644
0.471000,0.015559
0.471500,0.006542
0.472000,0.003644
0.472500,0.019423
0.473000,0.027474
0.473500,0.035525
0.474000,0.043253
0.474500,0.048405
0.475000,0.049372
0.475500,0.054202
0.476000,0.056778
0.476500,0.054524
0.477000,0.051304
0.477500,0.047439
0.478000,0.040677
0.478500,0.030050
0.479000,0.021356
0.479500,0.012017
0.480000,0.003322
0.480500,0.007831
0.481000,0.019745
0.481500,0.028440
0.482000,0.037457
0.482500,0.046473
0.483000,0.047761
0.483500,0.051626
0.484000,0.054202
0.484500,0.054202
0.485000,0.052914
0.485500,0.048405
0.486000,0.041965
0.486500,0.034558
0.487000,0.024576
0.487500,0.017491
0.488000,0.008797
0.488500,0.001712
0.489000,0.010085
0.489500,0.024254
0.490000,0.033270
0.490500,0.041321
0.491000,0.047439
0.491500,0.050338
0.492000,0.053558
0.492500,0.054846
0.493000,0.055812
0.493500,0.056134
0.494000,0.051948
0.494500,0.044863
0.495000,0.035203
0.495500,0.026830
0.496000,0.017813
0.496500,0.007831
0.497000,0.001390
0.497500,0.010407
0.498000,0.020067
0.498500,0.029406
0.499000,0.036491
0.499500,0.045185
0.500000,0.050016
0.500500,0.054524
0.501000,0.058710
0.501500,0.055490
0.502000,0.052914
0.502500,0.043253
0.503000,0.036813
0.503500,0.026508
0.504000,0.017491
0.504500,0.011373
0.505000,0.005576
0.505500,0.003966
0.506000,0.016847
0.506500,0.028762
0.507000,0.034558
0.507500,0.044541
0.508000,0.048727
0.508500,0.051626
0.509000,0.055812
0.509500,0.057422
0.510000,0.055490
0.510500,0.051948
0.511000,0.045185
0.511500,0.039389
0.512000,0.027796
0.512500,0.020067
0.513000,0.012339
0.513500,0.003644
0.514000,0.007509
0.514500,0.018457
0.515000,0.031982
0.515500,0.037779
0.516000,0.044863
0.516500,0.046151
0.517000,0.052592
0.517500,0.056778
0.518000,0.055490
0.518500,0.053558
0.519000,0.046473
0.519500,0.037457
0.520000,0.028440
0.520500,0.022000
0.521000,0.016847
0.521500,0.006864
0.522000,0.003322
0.522500,0.013627
0.523000,0.024576
0.523500,0.033270
0.524000,0.044541
0.524500,0.051304
0.525000,0.053880
0.525500,0.055812
0.526000,0.055812
0.526500,0.054524
0.527000,0.050338
0.527500,0.045507
0.528000,0.038423
0.528500,0.027474
0.529000,0.019745
0.529500,0.012017
0.530000,0.005576
0.530500,0.005254
0.531000,0.018135
0.531500,0.028440
0.532000,0.033914
0.532500,0.041965
0.533000,0.048083
0.533500,0.053236
0.534000,0.056456
0.534500,0.058066
0.535000,0.054524
0.535500,0.050660
0.536000,0.043253
0.536500,0.035203
0.537000,0.027796
0.537500,0.018135
0.538000,0.009441
0.538500,0.001390
0.539000,0.009119
0.539500,0.023610
0.540000,0.032948
0.540500,0.040033
0.541000,0.043253
0.541500,0.050338
0.542000,0.052914
0.542500,0.059354
0.543000,0.058710
0.543500,0.058066
0.544000,0.055168
0.544500,0.045829
0.545000,0.036169
0.545500,0.025864
0.546000,0.015559
0.546500,0.004288
0.547000,0.003322
0.547500,0.018135
0.548000,0.026830
0.548500,0.035847
0.549000,0.040677
0.549500,0.045507
0.550000,0.048727
0.550500,0.052592
0.551000,0.054846
0.551500,0.054202
0.552000,0.051948
0.552500,0.046151
0.553000,0.039389
0.553500,0.030050
0.554000,0.021033
0.554500,0.012017
0.555000,0.004610
0.555500,0.007831
0.556000,0.020067
0.556500,0.028118
0.557000,0.037779
0.557500,0.044863
0.558000,0.047439
0.558500,0.052270
0.559000,0.055168
0.559500,0.056134
0.560000,0.053880
0.560500,0.054202
0.561000,0.045829
0.561500,0.039711
0.562000,0.030372
0.562500,0.019101
0.563000,0.010407
0.563500,0.003000
0.564000,0.009119
0.564500,0.022322
0.565000,0.032304
0.565500,0.040033
0.566000,0.046151
0.566500,0.048405
0.567000,0.051304
0.567500,0.054202
0.568000,0.054524
0.568500,0.054202
0.569000,0.050982
0.569500,0.045829
0.570000,0.032626
0.570500,0.022966
0.571000,0.013949
0.571500,0.005898
0.572000,0.003644
0.572500,0.015881
0.573000,0.027796
0.573500,0.035847
0.574000,0.043253
0.574500,0.046473
0.575000,0.050982
0.575500,0.056134
0.576000,0.058710
0.576500,0.058388
0.577000,0.054524
0.577500,0.049050
0.578000,0.040677
0.578500,0.030050
0.579000,0.020711
0.579500,0.012983
0.580000,0.005254
0.580500,-0.001830
0.581000,0.015881
0.581500,0.027474
0.582000,0.036491
0.582500,0.041965
0.583000,0.046151
0.583500,0.049694
0.584000,0.053558
0.584500,0.051948
0.585000,0.054524
0.585500,0.050982
0.586000,0.043575
0.586500,0.035525
0.587000,0.025220
0.587500,0.018135
0.588000,0.007187
0.588500,0.002034
0.589000,0.010085
0.589500,0.022966
0.590000,0.031660
0.590500,0.037779
0.591000,0.045829
0.591500,0.046151
0.592000,0.051948
0.592500,0.053880
0.593000,0.053558
0.593500,0.050660
0.594000,0.047117
0.594500,0.041321
0.595000,0.033914
0.595500,0.024576
0.596000,0.021033
0.596500,0.015559
0.597000,0.006864
0.597500,0.008153
0.598000,0.022966
0.598500,0.034880
0.599000,0.043253
0.599500,0.046151
0.600000,0.048727
0.600500,0.051304
0.601000,0.052592
0.601500,0.051948
0.602000,0.054202
0.602500,0.051626
0.603000,0.042287
0.603500,0.032304
0.604000,0.024576
0.604500,0.013627
0.605000,0.003000
0.605500,0.010085
0.606000,0.023610
0.606500,0.033592
0.607000,0.037457
0.607500,0.042287
0.608000,0.046795
0.608500,0.048405
0.609000,0.052592
0.609500,0.056134
0.610000,0.054846
0.610500,0.049372
0.611000,0.046151
0.611500,0.034558
0.612000,0.026508
0.612500,0.019745
0.613000,0.011051
0.613500,0.002678
0.614000,0.010729
0.614500,0.022644
0.615000,0.031982
0.615500,0.037779
0.616000,0.040033
0.616500,0.042931
0.617000,0.049372
0.617500,0.054846
0.618000,0.058710
0.618500,0.056134
0.619000,0.054202
0.619500,0.047439
0.620000,0.035847
0.620500,0.026186
0.621000,0.015881
0.621500,0.007187
0.622000,0.000746
0.622500,0.015881
0.623000,0.026186
0.623500,0.034236
0.624000,0.041965
0.624500,0.047117
0.625000,0.051304
0.625500,0.053880
0.626000,0.055812
0.626500,0.054524
0.627000,0.052592
0.627500,0.048727
0.628000,0.040677
0.628500,0.031338
0.629000,0.022644
0.629500,0.015881
0.630000,0.007187
0.630500,-0.002152
0.631000,0.016847
0.631500,0.029728
0.632000,0.037779
0.632500,0.044541
0.633000,0.050338
0.633500,0.053880
0.634000,0.055490
0.634500,0.056778
0.635000,0.055812
0.635500,0.052914
0.636000,0.049694
0.636500,0.038745
0.637000,0.025864
0.637500,0.015881
0.638000,0.006864
0.638500,0.006864
0.639000,0.011695
0.639500,0.022000
0.640000,0.032626
0.640500,0.039389
0.641000,0.045185
0.641500,0.048083
0.642000,0.055168
0.642500,0.056778
0.643000,0.057100
0.643500,0.055168
0.644000,0.052270
0.644500,0.042609
0.645000,0.033914
0.645500,0.026186
0.646000,0.017491
0.646500,0.010407
0.647000,-0.000542
0.647500,0.017169
0.648000,0.028762
0.648500,0.036169
0.649000,0.042931
0.649500,0.046473
0.650000,0.047761
0.650500,0.052592
0.651000,0.053558
0.651500,0.052592
0.652000,0.052592
0.652500,0.047439
0.653000,0.039389
0.653500,0.028440
0.654000,0.019745
0.654500,0.011373
0.655000,0.003966
0.655500,0.006220
0.656000,0.019423
0.656500,0.031338
0.657000,0.039067
0.657500,0.046473
0.658000,0.049050
0.658500,0.056456
0.659000,0.056134
0.659500,0.056778
0.660000,0.058066
0.660500,0.055812
0.661000,0.050016
0.661500,0.039389
0.662000,0.030050
0.662500,0.018457
0.663000,0.010729
0.663500,0.001068
0.664000,0.010729
0.664500,0.024254
0.665000,0.030050
0.665500,0.036491
0.666000,0.040677
0.666500,0.042931
0.667000,0.049694
0.667500,0.053880
0.668000,0.055168
0.668500,0.055168
0.669000,0.052270
0.669500,0.044219
0.670000,0.034236
0.670500,0.025220
0.671000,0.013949
0.671500,0.009441
0.672000,0.005254
0.672500,0.016525
0.673000,0.027474
0.673500,0.036813
0.674000,0.044219
0.674500,0.047761
0.675000,0.048405
0.675500,0.053558
0.676000,0.056134
0.676500,0.056134
0.677000,0.051948
0.677500,0.045185
0.678000,0.037457
0.678500,0.032626
0.679000,0.022322
0.679500,0.015559
0.680000,0.009119
0.680500,-0.001186
0.681000,0.015237
0.681500,0.026508
0.682000,0.033592
0.682500,0.038745
0.683000,0.044219
0.683500,0.047761
0.684000,0.047439
0.684500,0.051304
0.685000,0.050338
0.685500,0.052914
0.686000,0.054524
0.686500,0.043253
0.687000,0.035203
0.687500,0.022966
0.688000,0.013949
0.688500,0.004610
0.689000,0.007831
0.689500,0.021678
0.690000,0.034236
0.690500,0.042287
0.691000,0.048405
0.691500,0.049694
0.692000,0.054524
0.692500,0.053880
0.693000,0.055168
0.693500,0.055168
0.694000,0.049694
0.694500,0.043897
0.695000,0.035203
0.695500,0.026186
0.696000,0.016203
0.696500,0.008475
0.697000,-0.001186
0.697500,0.012017
0.698000,0.026830
0.698500,0.033592
0.699000,0.041321
0.699500,0.047761
0.700000,0.047117
0.700500,0.052914
0.701000,0.054524
0.701500,0.053880
0.702000,0.052270
0.702500,0.046473
0.703000,0.039711
0.703500,0.027796
0.704000,0.020711
0.704500,0.013627
0.705000,0.004610
0.705500,0.004932
0.706000,0.015881
0.706500,0.026508
0.707000,0.033270
0.707500,0.041321
0.708000,0.046473
0.708500,0.054846
0.709000,0.054202
0.709500,0.056456
0.710000,0.053880
0.710500,0.050660
0.711000,0.046795
0.711500,0.037135
0.712000,0.029084
0.712500,0.020067
0.713000,0.011373
0.713500,0.005254
0.714000,0.006864
0.714500,0.019101
0.715000,0.031660
0.715500,0.036491
0.716000,0.041965
0.716500,0.044541
0.717000,0.051304
0.717500,0.055168
0.718000,0.055490
0.718500,0.052914
0.719000,0.050338
0.719500,0.043253
0.720000,0.033592
0.720500,0.023932
0.721000,0.015237
0.721500,0.007831
0.722000,0.001712
0.722500,0.013627
0.723000,0.024576
0.723500,0.036169
0.724000,0.042287
0.724500,0.047439
0.725000,0.049694
0.725500,0.053236
0.726000,0.057100
0.726500,0.053880
0.727000,0.052914
0.727500,0.049050
0.728000,0.041321
0.728500,0.030694
0.729000,0.022966
0.729500,0.014271
0.730000,0.004610
0.730500,0.002356
0.731000,0.017813
0.731500,0.030050
0.732000,0.038745
0.732500,0.043253
0.733000,0.045829
0.733500,0.048727
0.734000,0.051626
0.734500,0.055490
0.735000,0.054202
0.735500,0.051304
0.736000,0.045507
0.736500,0.037779
0.737000,0.027152
0.737500,0.018779
0.738000,0.008797
0.738500,0.001712
0.739000,0.009119
0.739500,0.025220
0.740000,0.034236
0.740500,0.040999
0.741000,0.049372
0.741500,0.050660
0.742000,0.054524
0.742500,0.059032
0.743000,0.059998
0.743500,0.057422
0.744000,0.050338
0.744500,0.041643
0.745000,0.031660
0.745500,0.022966
0.746000,0.012661
0.746500,0.006542
0.747000,0.001390
0.747500,0.012661
0.748000,0.023610
0.748500,0.032304
0.749000,0.040355
0.749500,0.046795
0.750000,0.050660
0.750500,0.052914
0.751000,0.055812
0.751500,0.053880
0.752000,0.052914
0.752500,0.047761
0.753000,0.039711
0.753500,0.031982
0.754000,0.021033
0.754500,0.013305
0.755000,0.004288
0.755500,0.005898
0.756000,0.019745
0.756500,0.030694
0.757000,0.038745
0.757500,0.044863
0.758000,0.048405
0.758500,0.052914
0.759000,0.056134
0.759500,0.056134
0.760000,0.055168
0.760500,0.052270
0.761000,0.046795
0.761500,0.038745
0.762000,0.028762
0.762500,0.019423
0.763000,0.011373
0.763500,0.000424
0.764000,0.006864
0.764500,0.016203
0.765000,0.026830
0.765500,0.035847
0.766000,0.042287
0.766500,0.046473
0.767000,0.052914
0.767500,0.055490
0.768000,0.057744
0.768500,0.055490
0.769000,0.053880
0.769500,0.047439
0.770000,0.039067
0.770500,0.027796
0.771000,0.017813
0.771500,0.007509
0.772000,0.003644
0.772500,0.021033
0.773000,0.033914
0.773500,0.036169
0.774000,0.041321
0.774500,0.041965
0.775000,0.050016
0.775500,0.059032
0.776000,0.060964
0.776500,0.053236
0.777000,0.053558
0.777500,0.048405
0.778000,0.040677
0.778500,0.029084
0.779000,0.025220
0.779500,0.014271
0.780000,0.005576
0.780500,0.000746
0.781000,0.016847
0.781500,0.028762
0.782000,0.034558
0.782500,0.040355
0.783000,0.044541
0.783500,0.050338
0.784000,0.054202
0.784500,0.055490
0.785000,0.054846
0.785500,0.057100
0.786000,0.049050
0.786500,0.039067
0.787000,0.029406
0.787500,0.020389
0.788000,0.011695
0.788500,0.003000
0.789000,0.008153
0.789500,0.023932
0.790000,0.031660
0.790500,0.040677
0.791000,0.047117
0.791500,0.049694
0.792000,0.052914
0.792500,0.055812
0.793000,0.054846
0.793500,0.054202
0.794000,0.050660
0.794500,0.047117
0.795000,0.038423
0.795500,0.027796
0.796000,0.017169
0.796500,0.007187
0.797000,-0.001830
0.797500,0.013305
0.798000,0.025542
0.798500,0.034558
0.799000,0.041965
0.799500,0.046473
0.800000,0.048405
0.800500,0.053558
0.801000,0.054524
0.801500,0.053558
0.802000,0.053236
0.802500,0.047117
0.803000,0.038745
0.803500,0.031016
0.804000,0.024254
0.804500,0.016525
0.805000,0.010407
0.805500,0.004288
0.806000,0.017169
0.806500,0.029406
0.807000,0.038745
0.807500,0.044863
0.808000,0.048727
0.808500,0.050660
0.809000,0.054202
0.809500,0.054846
0.810000,0.054202
0.810500,0.051948
0.811000,0.048727
0.811500,0.041321
0.812000,0.030372
0.812500,0.018779
0.813000,0.010407
0.813500,0.003000
0.814000,0.003644
0.814500,0.019423
0.815000,0.034236
0.815500,0.040677
0.816000,0.045185
0.816500,0.048727
0.817000,0.051626
0.817500,0.054846
0.818000,0.053880
0.818500,0.053236
0.819000,0.050338
0.819500,0.047761
0.820000,0.040355
0.820500,0.028118
0.821000,0.016847
0.821500,0.007509
0.822000,0.004610
0.822500,0.012339
0.823000,0.026830
0.823500,0.036813
0.824000,0.045185
0.824500,0.050982
0.825000,0.052592
0.825500,0.055490
0.826000,0.056456
0.826500,0.054202
0.827000,0.056134
0.827500,0.049694
0.828000,0.042287
0.828500,0.032948
0.829000,0.023610
0.829500,0.015559
0.830000,0.006864
0.830500,-0.001508
0.831000,0.015881
0.831500,0.027796
0.832000,0.035525
0.832500,0.043253
0.833000,0.046795
0.833500,0.051626
0.834000,0.052914
0.834500,0.055490
0.835000,0.053880
0.835500,0.051626
0.836000,0.042931
0.836500,0.034880
0.837000,0.027152
0.837500,0.018457
0.838000,0.012339
0.838500,0.002356
0.839000,0.008153
0.839500,0.021356
0.840000,0.031338
0.840500,0.038745
0.841000,0.045185
0.841500,0.049050
0.842000,0.052914
0.842500,0.054202
0.843000,0.051626
0.843500,0.054524
0.844000,0.051948
0.844500,0.046795
0.845000,0.036813
0.845500,0.032626
0.846000,0.021678
0.846500,0.007831
0.847000,-0.001508
0.847500,0.016203
0.848000,0.027152
0.848500,0.036491
0.849000,0.043253
0.849500,0.049372
0.850000,0.049694
0.850500,0.054846
0.851000,0.054524
0.851500,0.054202
0.852000,0.051304
0.852500,0.048083
0.853000,0.041321
0.853500,0.032304
0.854000,0.021033
0.854500,0.012661
0.855000,0.004932
0.855500,0.003644
0.856000,0.018457
0.856500,0.028762
0.857000,0.037457
0.857500,0.044219
0.858000,0.045185
0.858500,0.049372
0.859000,0.049694
0.859500,0.055168
0.860000,0.055168
0.860500,0.052914
0.861000,0.048083
0.861500,0.039389
0.862000,0.028762
0.862500,0.018135
0.863000,0.009441
0.863500,0.002678
0.864000,0.006220
0.864500,0.018135
0.865000,0.030694
0.865500,0.037779
0.866000,0.044541
0.866500,0.049050
0.867000,0.053880
0.867500,0.056134
0.868000,0.059032
0.868500,0.054202
0.869000,0.048083
0.869500,0.044219
0.870000,0.033914
0.870500,0.023610
0.871000,0.017169
0.871500,0.010407
0.872000,0.003322
0.872500,0.008797
0.873000,0.018457
0.873500,0.031016
0.874000,0.039389
0.874500,0.048727
0.875000,0.050016
0.875500,0.052270
0.876000,0.056134
0.876500,0.054524
0.877000,0.051626
0.877500,0.048727
0.878000,0.040999
0.878500,0.030050
0.879000,0.022966
0.879500,0.016847
0.880000,0.010729
0.880500,0.002678
0.881000,0.013305
0.881500,0.027796
0.882000,0.038101
0.882500,0.041321
0.883000,0.048083
0.883500,0.049372
0.884000,0.052914
0.884500,0.055168
0.885000,0.055168
0.885500,0.053236
0.886000,0.045507
0.886500,0.038423
0.887000,0.027474
0.887500,0.020389
0.888000,0.010085
0.888500,0.003000
0.889000,0.008797
0.889500,0.019101
0.890000,0.031016
0.890500,0.040033
0.891000,0.042609
0.891500,0.046473
0.892000,0.054524
0.892500,0.054524
0.893000,0.056134
0.893500,0.054846
0.894000,0.052270
0.894500,0.045829
0.895000,0.037457
0.895500,0.028118
0.896000,0.019423
0.896500,0.010407
0.897000,0.001712
0.897500,0.009763
0.898000,0.023610
0.898500,0.033270
0.899000,0.041321
0.899500,0.046795
0.900000,0.048083
0.900500,0.053236
0.901000,0.054202
0.901500,0.052592
0.902000,0.049694
0.902500,0.045507
0.903000,0.037135
0.903500,0.030050
0.904000,0.022322
0.904500,0.014915
0.905000,0.007187
0.905500,0.004932
0.906000,0.015881
0.906500,0.027796
0.907000,0.036491
0.907500,0.044541
0.908000,0.050338
0.908500,0.052914
0.909000,0.055168
0.909500,0.057422
0.910000,0.054846
0.910500,0.052914
0.911000,0.046473
0.911500,0.039711
0.912000,0.030694
0.912500,0.020711
0.913000,0.013627
0.913500,0.004610
0.914000,0.000424
0.914500,0.018457
0.915000,0.027152
0.915500,0.037135
0.916000,0.044541
0.916500,0.046473
0.917000,0.051304
0.917500,0.053880
0.918000,0.053236
0.918500,0.051626
0.919000,0.049372
0.919500,0.040355
0.920000,0.032626
0.920500,0.027474
0.921000,0.018135
0.921500,0.010729
0.922000,0.003000
0.922500,0.009441
0.923000,0.020389
0.923500,0.034236
0.924000,0.041321
0.924500,0.048405
0.925000,0.051626
0.925500,0.055812
0.926000,0.057422
0.926500,0.058066
0.927000,0.054524
0.927500,0.050338
0.928000,0.040355
0.928500,0.033592
0.929000,0.023288
0.929500,0.015881
0.930000,0.008797
0.930500,-0.001508
0.931000,0.017169
0.931500,0.028440
0.932000,0.034236
0.932500,0.039389
0.933000,0.045185
0.933500,0.047761
0.934000,0.051948
0.934500,0.054524
0.935000,0.052914
0.935500,0.050982
0.936000,0.046151
0.936500,0.037779
0.937000,0.028762
0.937500,0.020711
0.938000,0.012017
0.938500,0.006542
0.939000,0.007187
0.939500,0.022644
0.940000,0.033914
0.940500,0.040999
0.941000,0.046473
0.941500,0.050982
0.942000,0.053236
0.942500,0.056778
0.943000,0.055812
0.943500,0.052914
0.944000,0.047761
0.944500,0.042931
0.945000,0.034880
0.945500,0.027474
0.946000,0.020711
0.946500,0.007831
0.947000,-0.001830
0.947500,0.008475
0.948000,0.014271
0.948500,0.022322
0.949000,0.031338
0.949500,0.042287
0.950000,0.048405
0.950500,0.054524
0.951000,0.061608
0.951500,0.059032
0.952000,0.056456
0.952500,0.053236
0.953000,0.044219
0.953500,0.034236
0.954000,0.025220
0.954500,0.015559
0.955000,0.005898
0.955500,0.003000
0.956000,0.017491
0.956500,0.029728
0.957000,0.041321
0.957500,0.046795
0.958000,0.050982
0.958500,0.054524
0.959000,0.056134
0.959500,0.056456
0.960000,0.054202
0.960500,0.049694
0.961000,0.044541
0.961500,0.035525
0.962000,0.029406
0.962500,0.021356
0.963000,0.013627
0.963500,0.005254
0.964000,-0.001830
0.964500,0.015237
0.965000,0.026830
0.965500,0.035525
0.966000,0.043253
0.966500,0.047761
0.967000,0.052592
0.967500,0.055168
0.968000,0.056134
0.968500,0.054846
0.969000,0.050016
0.969500,0.043253
0.970000,0.035525
0.970500,0.030050
0.971000,0.020711
0.971500,0.010407
0.972000,0.001068
0.972500,0.012983
0.973000,0.025542
0.973500,0.034880
0.974000,0.044219
0.974500,0.048083
0.975000,0.049050
0.975500,0.052270
0.976000,0.056134
0.976500,0.056456
0.977000,0.056456
0.977500,0.050660
0.978000,0.045507
0.978500,0.034880
0.979000,0.024254
0.979500,0.012983
0.980000,0.005898
0.980500,0.000424
0.981000,0.014593
0.981500,0.023288
0.982000,0.035203
0.982500,0.042609
0.983000,0.047439
0.983500,0.047761
0.984000,0.053880
0.984500,0.053880
0.985000,0.052592
0.985500,0.050016
0.986000,0.043575
0.986500,0.036169
0.987000,0.028440
0.987500,0.021356
0.988000,0.013305
0.988500,0.006864
0.989000,0.006864
0.989500,0.021678
0.990000,0.031660
0.990500,0.039389
0.991000,0.043897
0.991500,0.049694
0.992000,0.050982
0.992500,0.054524
0.993000,0.057744
0.993500,0.057100
0.994000,0.056134
0.994500,0.046473
0.995000,0.038745
0.995500,0.026830
0.996000,0.019423
0.996500,0.009119
0.997000,0.001712
0.997500,0.012339
0.998000,0.022966
0.998500,0.032626
0.999000,0.037779
0.999500,0.045829
1.000000,0.049050
1.000500,0.054202
1.001000,0.053558
1.001500,0.053880
1.002000,0.051304
1.002500,0.045507
1.003000,0.040033
1.003500,0.031016
1.004000,0.023610
1.004500,0.014593
1.005000,0.005254
1.005500,0.005576
1.006000,0.019101
1.006500,0.028762
1.007000,0.035847
1.007500,0.042287
1.008000,0.048405
1.008500,0.050982
1.009000,0.051626
1.009500,0.057100
1.010000,0.055812
1.010500,0.054202
1.011000,0.048083
1.011500,0.040355
1.012000,0.032626
1.012500,0.024254
1.013000,0.015881
1.013500,0.004610
1.014000,0.004610
1.014500,0.020389
1.015000,0.031338
1.015500,0.039389
1.016000,0.045507
1.016500,0.047761
1.017000,0.049372
1.017500,0.052592
1.018000,0.053558
1.018500,0.052914
1.019000,0.051948
1.019500,0.042287
1.020000,0.032626
1.020500,0.024576
1.021000,0.014593
1.021500,0.007509
1.022000,0.001712
1.022500,0.009119
1.023000,0.022322
1.023500,0.033592
1.024000,0.040999
1.024500,0.046795
1.025000,0.052270
1.025500,0.056134
1.026000,0.056456
1.026500,0.056778
1.027000,0.054524
1.027500,0.050016
1.028000,0.040999
1.028500,0.031982
1.029000,0.022000
1.029500,0.012017
1.030000,0.006542
1.030500,-0.002152
1.031000,0.013305
1.031500,0.025220
1.032000,0.034880
1.032500,0.040355
1.033000,0.045507
1.033500,0.047117
1.034000,0.049372
1.034500,0.051626
1.035000,0.047117
1.035500,0.044541
1.036000,0.040999
1.036500,0.038745
1.037000,0.032304
1.037500,0.028762
1.038000,0.022322
1.038500,0.012017
1.039000,0.002034
1.039500,0.014593
1.040000,0.029406
1.040500,0.038423
1.041000,0.045185
1.041500,0.051626
1.042000,0.055490
1.042500,0.059676
1.043000,0.059354
1.043500,0.056134
1.044000,0.051304
1.044500,0.045829
1.045000,0.037457
1.045500,0.026508
1.046000,0.018135
1.046500,0.009763
1.047000,0.000424
1.047500,0.013305
1.048000,0.025542
1.048500,0.035847
1.049000,0.038423
1.049500,0.045829
1.050000,0.043253
1.050500,0.050338
1.051000,0.054846
1.051500,0.055490
1.052000,0.054202
1.052500,0.052592
1.053000,0.038745
1.053500,0.032626
1.054000,0.022966
1.054500,0.016847
1.055000,0.006542
1.055500,0.002034
1.056000,0.013305
1.056500,0.027152
1.057000,0.035525
1.057500,0.043575
1.058000,0.047117
1.058500,0.049372
1.059000,0.053880
1.059500,0.055490
1.060000,0.053558
1.060500,0.053880
1.061000,0.049372
1.061500,0.042287
1.062000,0.032626
1.062500,0.022000
1.063000,0.013949
1.063500,0.004932
1.064000,0.009441
1.064500,0.018135
1.065000,0.030372
1.065500,0.038423
1.066000,0.045185
1.066500,0.047117
1.067000,0.051948
1.067500,0.052914
1.068000,0.054524
1.068500,0.053236
1.069000,0.050338
1.069500,0.043897
1.070000,0.035525
1.070500,0.026186
1.071000,0.016203
1.071500,0.007831
1.072000,0.001390
1.072500,0.013627
1.073000,0.024576
1.073500,0.033914
1.074000,0.042287
1.074500,0.047761
1.075000,0.051626
1.075500,0.057744
1.076000,0.056134
1.076500,0.056778
1.077000,0.055812
1.077500,0.051304
1.078000,0.043897
1.078500,0.034236
1.079000,0.025542
1.079500,0.016847
1.080000,0.010085
1.080500,0.002356
1.081000,0.012983
1.081500,0.022644
1.082000,0.035203
1.082500,0.043253
1.083000,0.047761
1.083500,0.050660
1.084000,0.053880
1.084500,0.054524
1.085000,0.052592
1.085500,0.051948
1.086000,0.045185
1.086500,0.038745
1.087000,0.026186
1.087500,0.019101
1.088000,0.012017
1.088500,0.004610
1.089000,0.005576
1.089500,0.018779
1.090000,0.034236
1.090500,0.041321
1.091000,0.049694
1.091500,0.055812
1.092000,0.060320
1.092500,0.059998
1.093000,0.057422
1.093500,0.054202
1.094000,0.050982
1.094500,0.043253
1.095000,0.034880
1.095500,0.028440
1.096000,0.017169
1.096500,0.009763
1.097000,0.001712
1.097500,0.008797
1.098000,0.019423
1.098500,0.030694
1.099000,0.035847
1.099500,0.045185
1.100000,0.047117
1.100500,0.053236
1.101000,0.057422
1.101500,0.055812
1.102000,0.057422
1.102500,0.054524
1.103000,0.046151
1.103500,0.037779
1.104000,0.023288
1.104500,0.014271
1.105000,0.003644
1.105500,0.007187
1.106000,0.020067
1.106500,0.031338
1.107000,0.039711
1.107500,0.042287
1.108000,0.044863
1.108500,0.048727
1.109000,0.051948
1.109500,0.054846
1.110000,0.053236
1.110500,0.051948
1.111000,0.049694
1.111500,0.045507
1.112000,0.039067
1.112500,0.026508
1.113000,0.014593
1.113500,0.004610
1.114000,0.004288
1.114500,0.017813
1.115000,0.031338
1.115500,0.035203
1.116000,0.039711
1.116500,0.043253
1.117000,0.050660
1.117500,0.052914
1.118000,0.057744
1.118500,0.056456
1.119000,0.053558
1.119500,0.046151
1.120000,0.037457
1.120500,0.026186
1.121000,0.017813
1.121500,0.008475
1.122000,0.002356
1.122500,0.010729
1.123000,0.022644
1.123500,0.033914
1.124000,0.039711
1.124500,0.046473
1.125000,0.049050
1.125500,0.055168
1.126000,0.055490
1.126500,0.055490
1.127000,0.053236
1.127500,0.050016
1.128000,0.042609
1.128500,0.034236
1.129000,0.024898
1.129500,0.015881
1.130000,0.007509
1.130500,0.000102
1.131000,0.011695
1.131500,0.023610
1.132000,0.034236
1.132500,0.041643
1.133000,0.048727
1.133500,0.049694
1.134000,0.054202
1.134500,0.056778
1.135000,0.055490
1.135500,0.053558
1.136000,0.048405
1.136500,0.041965
1.137000,0.033592
1.137500,0.021678
1.138000,0.014593
1.138500,0.002678
1.139000,0.005254
1.139500,0.017491
1.140000,0.029728
1.140500,0.037457
1.141000,0.045507
1.141500,0.049694
1.142000,0.056778
1.142500,0.061286
1.143000,0.061286
1.143500,0.058710
1.144000,0.053558
1.144500,0.046151
1.145000,0.034880
1.145500,0.025220
1.146000,0.017491
1.146500,0.010407
1.147000,0.005898
1.147500,0.007187
1.148000,0.020711
1.148500,0.031016
1.149000,0.041643
1.149500,0.048083
1.150000,0.051626
1.150500,0.054524
1.151000,0.057422
1.151500,0.055168
1.152000,0.053880
1.152500,0.051304
1.153000,0.043253
1.153500,0.032304
1.154000,0.024576
1.154500,0.012339
1.155000,0.004932
1.155500,0.003322
1.156000,0.017813
1.156500,0.028762
1.157000,0.037457
1.157500,0.045829
1.158000,0.050660
1.158500,0.052270
1.159000,0.055168
1.159500,0.058388
1.160000,0.055490
1.160500,0.054202
1.161000,0.048405
1.161500,0.040999
1.162000,0.030372
1.162500,0.021678
1.163000,0.015881
1.163500,0.007831
1.164000,0.000102
1.164500,0.011051
1.165000,0.022322
1.165500,0.028118
1.166000,0.038101
1.166500,0.045185
1.167000,0.051304
1.167500,0.055812
1.168000,0.056778
1.168500,0.055812
1.169000,0.054846
1.169500,0.050338
1.170000,0.041321
1.170500,0.030694
1.171000,0.019423
1.171500,0.010085
1.172000,0.002356
1.172500,0.009441
1.173000,0.022322
1.173500,0.033914
1.174000,0.041643
1.174500,0.048405
1.175000,0.051626
1.175500,0.055490
1.176000,0.058388
1.176500,0.059032
1.177000,0.056134
1.177500,0.050982
1.178000,0.043253
1.178500,0.036813
1.179000,0.025220
1.179500,0.018457
1.180000,0.008475
1.180500,0.002356
1.181000,0.012017
1.181500,0.025542
1.182000,0.034236
1.182500,0.040033
1.183000,0.046151
1.183500,0.047439
1.184000,0.052914
1.184500,0.057100
1.185000,0.053880
1.185500,0.051626
1.186000,0.047439
1.186500,0.039067
1.187000,0.030372
1.187500,0.022322
1.188000,0.012661
1.188500,0.003000
1.189000,0.007509
1.189500,0.021356
1.190000,0.031338
1.190500,0.038101
1.191000,0.046151
1.191500,0.049694
1.192000,0.051948
1.192500,0.055490
1.193000,0.057100
1.193500,0.055168
1.194000,0.050982
1.194500,0.045829
1.195000,0.036813
1.195500,0.027796
1.196000,0.018457
1.196500,0.010729
1.197000,0.003000
1.197500,0.005254
1.198000,0.017169
1.198500,0.031338
1.199000,0.037779
1.199500,0.044863
1.200000,0.048405
1.200500,0.053880
1.201000,0.054202
1.201500,0.054202
1.202000,0.053236
1.202500,0.048405
1.203000,0.041965
1.203500,0.033914
1.204000,0.024576
1.204500,0.014915
1.205000,0.004610
1.205500,0.006220
1.206000,0.015881
1.206500,0.027796
1.207000,0.035847
1.207500,0.043897
1.208000,0.049050
1.208500,0.049694
1.209000,0.055168
1.209500,0.057422
1.210000,0.055812
1.210500,0.052914
1.211000,0.046151
1.211500,0.040033
1.212000,0.029728
1.212500,0.021678
1.213000,0.012339
1.213500,0.003966
1.214000,0.008153
1.214500,0.015237
1.215000,0.027474
1.215500,0.035203
1.216000,0.044219
1.216500,0.049050
1.217000,0.054202
1.217500,0.056456
1.218000,0.057100
1.218500,0.054846
1.219000,0.050982
1.219500,0.043575
1.220000,0.034558
1.220500,0.022966
1.221000,0.014271
1.221500,0.005898
1.222000,0.001712
1.222500,0.009441
1.223000,0.022966
1.223500,0.033270
1.224000,0.040999
1.224500,0.045829
1.225000,0.048083
1.225500,0.054202
1.226000,0.057100
1.226500,0.053880
1.227000,0.054846
1.227500,0.050982
1.228000,0.040999
1.228500,0.034558
1.229000,0.025542
1.229500,0.017491
1.230000,0.011373
1.230500,-0.000542
1.231000,0.011373
1.231500,0.022644
1.232000,0.035525
1.232500,0.041965
1.233000,0.048083
1.233500,0.049372
1.234000,0.052914
1.234500,0.053880
1.235000,0.056134
1.235500,0.052592
1.236000,0.047439
1.236500,0.038745
1.237000,0.031016
1.237500,0.022966
1.238000,0.014915
1.238500,0.007509
1.239000,0.003322
1.239500,0.018457
1.240000,0.031338
1.240500,0.042287
1.241000,0.046473
1.241500,0.052270
1.242000,0.053558
1.242500,0.055168
1.243000,0.056456
1.243500,0.054524
1.244000,0.052270
1.244500,0.045829
1.245000,0.037779
1.245500,0.028440
1.246000,0.017491
1.246500,0.008475
1.247000,-0.000864
1.247500,0.010729
1.248000,0.023932
1.248500,0.033914
1.249000,0.040033
1.249500,0.044863
1.250000,0.047439
1.250500,0.055168
1.251000,0.056134
1.251500,0.055812
1.252000,0.054524
1.252500,0.051304
1.253000,0.043253
1.253500,0.033592
1.254000,0.024254
1.254500,0.015559
1.255000,0.006220
1.255500,0.002356
1.256000,0.013949
1.256500,0.026508
1.257000,0.035525
1.257500,0.042609
1.258000,0.048083
1.258500,0.051948
1.259000,0.051626
1.259500,0.054202
1.260000,0.056456
1.260500,0.055490
1.261000,0.050016
1.261500,0.039389
1.262000,0.031660
1.262500,0.022000
1.263000,0.013949
1.263500,0.006542
1.264000,-0.001508
1.264500,0.017491
1.265000,0.027474
1.265500,0.038101
1.266000,0.041321
1.266500,0.046795
1.267000,0.047761
1.267500,0.051626
1.268000,0.055490
1.268500,0.054202
1.269000,0.053880
1.269500,0.046473
1.270000,0.037457
1.270500,0.028118
1.271000,0.018457
1.271500,0.010407
1.272000,0.002678
1.272500,0.012339
1.273000,0.021033
1.273500,0.031982
1.274000,0.041321
1.274500,0.047117
1.275000,0.049372
1.275500,0.054202
1.276000,0.056456
1.276500,0.057100
1.277000,0.054524
1.277500,0.055490
1.278000,0.044219
1.278500,0.036169
1.279000,0.025220
1.279500,0.017491
1.280000,0.008797
1.280500,-0.000864
1.281000,0.010407
1.281500,0.022644
1.282000,0.034880
1.282500,0.040033
1.283000,0.045829
1.283500,0.045829
1.284000,0.051626
1.284500,0.053558
1.285000,0.052270
1.285500,0.050982
1.286000,0.045185
1.286500,0.039067
1.287000,0.030372
1.287500,0.021678
1.288000,0.014271
1.288500,0.004288
1.289000,0.005254
1.289500,0.019745
1.290000,0.031338
1.290500,0.041965
1.291000,0.044541
1.291500,0.050016
1.292000,0.053880
1.292500,0.056456
1.293000,0.057100
1.293500,0.055168
1.294000,0.051948
1.294500,0.047117
1.295000,0.039389
1.295500,0.029406
1.296000,0.020389
1.296500,0.010729
1.297000,0.003966
1.297500,0.006542
1.298000,0.019745
1.298500,0.030050
1.299000,0.036813
1.299500,0.044219
1.300000,0.048405
1.300500,0.052270
1.301000,0.053236
1.301500,0.054524
1.302000,0.051948
1.302500,0.050016
1.303000,0.041965
1.303500,0.033914
1.304000,0.026508
1.304500,0.017169
1.305000,0.007831
1.305500,0.000746
1.306000,0.013627
1.306500,0.024576
1.307000,0.033914
1.307500,0.039067
1.308000,0.047439
1.308500,0.048405
1.309000,0.055168
1.309500,0.059998
1.310000,0.058710
1.310500,0.056778
1.311000,0.048083
1.311500,0.042609
1.312000,0.031338
1.312500,0.023932
1.313000,0.015881
1.313500,0.004288
1.314000,0.005254
1.314500,0.016847
1.315000,0.027796
1.315500,0.031982
1.316000,0.032948
1.316500,0.039067
1.317000,0.041321
1.317500,0.052270
1.318000,0.060964
1.318500,0.061286
1.319000,0.059998
1.319500,0.052592
1.320000,0.042287
1.320500,0.031016
1.321000,0.022966
1.321500,0.012017
1.322000,0.003966
1.322500,0.006220
1.323000,0.019101
1.323500,0.030372
1.324000,0.036813
1.324500,0.043897
1.325000,0.048083
1.325500,0.051626
1.326000,0.054846
1.326500,0.055168
1.327000,0.055168
1.327500,0.051948
1.328000,0.044541
1.328500,0.036169
1.329000,0.025542
1.329500,0.015559
1.330000,0.005576
1.330500,0.000424
1.331000,0.011695
1.331500,0.022644
1.332000,0.034236
1.332500,0.041643
1.333000,0.048727
1.333500,0.048083
1.334000,0.050660
1.334500,0.052914
1.335000,0.052270
1.335500,0.053558
1.336000,0.049694
1.336500,0.038745
1.337000,0.031016
1.337500,0.023288
1.338000,0.014593
1.338500,0.007187
1.339000,0.003966
1.339500,0.016203
1.340000,0.030050
1.340500,0.037135
1.341000,0.043897
1.341500,0.049050
1.342000,0.051304
1.342500,0.054202
1.343000,0.054846
1.343500,0.053880
1.344000,0.051626
1.344500,0.045829
1.345000,0.037457
1.345500,0.026508
1.346000,0.018135
1.346500,0.012983
1.347000,0.003966
1.347500,0.005898
1.348000,0.018457
1.348500,0.031016
1.349000,0.038423
1.349500,0.044863
1.350000,0.048727
1.350500,0.052270
1.351000,0.057100
1.351500,0.057100
1.352000,0.054202
1.352500,0.053236
1.353000,0.044219
1.353500,0.039067
1.354000,0.027474
1.354500,0.019101
1.355000,0.007831
1.355500,0.002356
1.356000,0.012983
1.356500,0.027152
1.357000,0.033914
1.357500,0.042609
1.358000,0.048405
1.358500,0.051626
1.359000,0.055490
1.359500,0.057100
1.360000,0.054524
1.360500,0.053236
1.361000,0.050338
1.361500,0.041321
1.362000,0.034236
1.362500,0.023932
1.363000,0.014593
1.363500,0.008475
1.364000,-0.000864
1.364500,0.014593
1.365000,0.027152
1.365500,0.034236
1.366000,0.042609
1.366500,0.047761
1.367000,0.050982
1.367500,0.052270
1.368000,0.056134
1.368500,0.054202
1.369000,0.051304
1.369500,0.046151
1.370000,0.038101
1.370500,0.027152
1.371000,0.015881
1.371500,0.010407
1.372000,0.002034
1.372500,0.008797
1.373000,0.022644
1.373500,0.033270
1.374000,0.040033
1.374500,0.045507
1.375000,0.049372
1.375500,0.054846
1.376000,0.056456
1.376500,0.055168
1.377000,0.054846
1.377500,0.050982
1.378000,0.045185
1.378500,0.037457
1.379000,0.028440
1.379500,0.020389
1.380000,0.010729
1.380500,0.003644
1.381000,0.007831
1.381500,0.020389
1.382000,0.029084
1.382500,0.039067
1.383000,0.044219
1.383500,0.048083
1.384000,0.053880
1.384500,0.054846
1.385000,0.053880
1.385500,0.052592
1.386000,0.048083
1.386500,0.040677
1.387000,0.031338
1.387500,0.023288
1.388000,0.016847
1.388500,0.008153
1.389000,0.004610
1.389500,0.017813
1.390000,0.028440
1.390500,0.035203
1.391000,0.042931
1.391500,0.048727
1.392000,0.048083
1.392500,0.054524
1.393000,0.056778
1.393500,0.054846
1.394000,0.052914
1.394500,0.050016
1.395000,0.041965
1.395500,0.030372
1.396000,0.021356
1.396500,0.010729
1.397000,0.003966
1.397500,0.003966
1.398000,0.018457
1.398500,0.031660
1.399000,0.040033
1.399500,0.045507
1.400000,0.047439
1.400500,0.052914
1.401000,0.055490
1.401500,0.055812
1.402000,0.056456
1.402500,0.054202
1.403000,0.045829
1.403500,0.036169
1.404000,0.026186
1.404500,0.015559
1.405000,0.006864
1.405500,0.001712
1.406000,0.011051
1.406500,0.024254
1.407000,0.035203
1.407500,0.043575
1.408000,0.049372
1.408500,0.050982
1.409000,0.055812
1.409500,0.059354
1.410000,0.056778
1.410500,0.054524
1.411000,0.050982
1.411500,0.041965
1.412000,0.032626
1.412500,0.021356
1.413000,0.012339
1.413500,0.003966
1.414000,0.007831
1.414500,0.022322
1.415000,0.034558
1.415500,0.039711
1.416000,0.042287
1.416500,0.042609
1.417000,0.043575
1.417500,0.048727
1.418000,0.053558
1.418500,0.052592
1.419000,0.051626
1.419500,0.044541
1.420000,0.037779
1.420500,0.028762
1.421000,0.019101
1.421500,0.010729
1.422000,0.003966
1.422500,0.003966
1.423000,0.015559
1.423500,0.029728
1.424000,0.037135
1.424500,0.045185
1.425000,0.048727
1.425500,0.052270
1.426000,0.054846
1.426500,0.055168
1.427000,0.055490
1.427500,0.050338
1.428000,0.047117
1.428500,0.036169
1.429000,0.024576
1.429500,0.019745
1.430000,0.011051
1.430500,0.004288
1.431000,0.010085
1.431500,0.022322
1.432000,0.033914
1.432500,0.037779
1.433000,0.047117
1.433500,0.048727
1.434000,0.053558
1.434500,0.057100
1.435000,0.056134
1.435500,0.056778
1.436000,0.052592
1.436500,0.046151
1.437000,0.035203
1.437500,0.023610
1.438000,0.014593
1.438500,0.004288
1.439000,0.001712
1.439500,0.015559
1.440000,0.027796
1.440500,0.037457
1.441000,0.044541
1.441500,0.047117
1.442000,0.052592
1.442500,0.057100
1.443000,0.059032
1.443500,0.058710
1.444000,0.054202
1.444500,0.048727
1.445000,0.039711
1.445500,0.029728
1.446000,0.021356
1.446500,0.009441
1.447000,0.004288
1.447500,0.006864
1.448000,0.018457
1.448500,0.028440
1.449000,0.035847
1.449500,0.043897
1.450000,0.047761
1.450500,0.052592
1.451000,0.054846
1.451500,0.055812
1.452000,0.054202
1.452500,0.050660
1.453000,0.048727
1.453500,0.037457
1.454000,0.024898
1.454500,0.016847
1.455000,0.006542
1.455500,0.004932
1.456000,0.013627
1.456500,0.025542
1.457000,0.034558
1.457500,0.040677
1.458000,0.046473
1.458500,0.049372
1.459000,0.052914
1.459500,0.054202
1.460000,0.057100
1.460500,0.053880
1.461000,0.052270
1.461500,0.044541
1.462000,0.036813
1.462500,0.027796
1.463000,0.018135
1.463500,0.009763
1.464000,-0.000864
1.464500,0.015881
1.465000,0.029084
1.465500,0.036813
1.466000,0.045185
1.466500,0.051948
1.467000,0.056134
1.467500,0.054202
1.468000,0.054202
1.468500,0.053236
1.469000,0.050982
1.469500,0.046473
1.470000,0.036813
1.470500,0.027796
1.471000,0.020067
1.471500,0.005898
1.472000,0.001390
1.472500,0.009441
1.473000,0.021678
1.473500,0.033592
1.474000,0.042609
1.474500,0.050660
1.475000,0.052914
1.475500,0.054524
1.476000,0.054202
1.476500,0.051948
1.477000,0.050982
1.477500,0.051304
1.478000,0.046151
1.478500,0.033270
1.479000,0.025864
1.479500,0.011373
1.480000,0.000746
1.480500,0.005576
1.481000,0.013627
1.481500,0.025864
1.482000,0.034880
1.482500,0.040677
1.483000,0.048083
1.483500,0.046795
1.484000,0.050338
1.484500,0.050016
1.485000,0.047439
1.485500,0.040999
1.486000,0.038745
1.486500,0.030372
1.487000,0.022966
1.487500,0.014915
1.488000,0.006220
1.488500,0.002034
1.489000,0.007831
1.489500,0.020389
1.490000,0.028440
1.490500,0.033914
1.491000,0.040999
1.491500,0.042931
1.492000,0.044863
1.492500,0.045829
1.493000,0.047117
1.493500,0.045829
1.494000,0.047117
1.494500,0.042931
1.495000,0.035203
1.495500,0.027796
1.496000,0.022966
1.496500,0.014271
1.497000,0.008153
1.497500,0.001068
1.498000,0.010729
1.498500,0.024898
1.499000,0.030694
1.499500,0.038745
1.500000,0.046795
1.500500,0.051948
1.501000,0.053558
1.501500,0.051948
1.502000,0.052592
1.502500,0.049050
1.503000,0.045507
1.503500,0.035203
1.504000,0.026508
1.504500,0.017169
1.505000,0.009119
1.505500,0.001068
1.506000,0.012983
1.506500,0.026508
1.507000,0.036813
1.507500,0.041965
1.508000,0.045829
1.508500,0.047117
1.509000,0.050982
1.509500,0.053880
1.510000,0.057422
1.510500,0.054846
1.511000,0.051304
1.511500,0.040677
1.512000,0.029728
1.512500,0.018135
1.513000,0.011051
1.513500,0.000102
1.514000,0.007187
1.514500,0.019745
1.515000,0.033914
1.515500,0.040677
1.516000,0.043897
1.516500,0.045185
1.517000,0.046151
1.517500,0.048727
1.518000,0.048405
1.518500,0.043575
1.519000,0.041643
1.519500,0.040033
1.520000,0.034880
1.520500,0.023932
1.521000,0.013949
1.521500,0.004932
1.522000,0.006864
1.522500,0.015559
1.523000,0.027152
1.523500,0.036169
1.524000,0.039389
1.524500,0.044219
1.525000,0.048083
1.525500,0.050982
1.526000,0.051948
1.526500,0.052270
1.527000,0.050338
1.527500,0.046151
1.528000,0.040033
1.528500,0.031338
1.529000,0.024898
1.529500,0.014593
1.530000,0.009119
1.530500,-0.001186
1.531000,0.009441
1.531500,0.025220
1.532000,0.034880
1.532500,0.040999
1.533000,0.044863
1.533500,0.042931
1.534000,0.048083
1.534500,0.051948
1.535000,0.052270
1.535500,0.051948
1.536000,0.047439
1.536500,0.043253
1.537000,0.035203
1.537500,0.025542
1.538000,0.014271
1.538500,0.005576
1.539000,0.003000
1.539500,0.015559
1.540000,0.029406
1.540500,0.040999
1.541000,0.051304
1.541500,0.060642
1.542000,0.065151
1.542500,0.067405
1.543000,0.073845
1.543500,0.075133
1.544000,0.077066
1.544500,0.070303
1.545000,0.062252
1.545500,0.053880
1.546000,0.043253
1.546500,0.033914
1.547000,0.024254
1.547500,0.009763
1.548000,0.007509
1.548500,0.027152
1.549000,0.043575
1.549500,0.054846
1.550000,0.061286
1.550500,0.068371
1.551000,0.071913
1.551500,0.068049
1.552000,0.061930
1.552500,0.055168
1.553000,0.044219
1.553500,0.033592
1.554000,0.018135
1.554500,0.003322
1.555000,0.008475
1.555500,0.016525
1.556000,0.025220
1.556500,0.036169
1.557000,0.046795
1.557500,0.055168
1.558000,0.061286
1.558500,0.061608
1.559000,0.065473
1.559500,0.066761
1.560000,0.065795
1.560500,0.066439
1.561000,0.065795
1.561500,0.063863
1.562000,0.059354
1.562500,0.051948
1.563000,0.043575
1.563500,0.033592
1.564000,0.026186
1.564500,0.011373
1.565000,-0.000864
1.565500,0.007831
1.566000,0.017491
1.566500,0.026508
1.567000,0.025220
1.567500,0.026830
1.568000,0.027474
1.568500,0.023288
1.569000,0.021678
1.569500,0.016525
1.570000,0.016203
1.570500,0.012983
1.571000,0.001390
1.571500,0.012017
1.572000,0.023288
1.572500,0.031982
1.573000,0.039389
1.573500,0.047117
1.574000,0.050660
1.574500,0.051948
1.575000,0.051948
1.575500,0.057100
1.576000,0.063541
1.576500,0.071591
1.577000,0.082218
1.577500,0.092201
1.578000,0.099285
1.578500,0.096387
1.579000,0.092845
1.579500,0.092523
1.580000,0.090268
1.580500,0.086726
1.581000,0.078676
1.581500,0.070625
1.582000,0.072557
1.582500,0.074167
1.583000,0.078032
1.583500,0.090913
1.584000,0.090913
1.584500,0.076421
1.585000,0.052592
1.585500,0.023932
1.586000,0.000424
1.586500,0.013627
1.587000,0.024576
1.587500,0.027474
1.588000,0.030050
1.588500,0.025542
1.589000,0.018779
1.589500,0.005898
1.590000,0.005254
1.590500,0.014593
1.591000,0.018135
1.591500,0.020067
1.592000,0.018135
1.592500,0.015881
1.593000,0.014915
1.593500,0.009441
1.594000,0.008797
1.594500,0.003000
1.595000,0.006864
1.595500,0.013627
1.596000,0.022966
1.596500,0.024576
1.597000,0.031982
1.597500,0.039067
1.598000,0.050016
1.598500,0.060320
1.599000,0.068049
1.599500,0.077066
1.600000,0.082218
1.600500,0.087370
1.601000,0.089624
1.601500,0.092845
1.602000,0.090913
1.602500,0.088014
1.603000,0.081896
1.603500,0.071591
1.604000,0.059354
1.604500,0.045829
1.605000,0.033592
1.605500,0.022644
1.606000,0.006864
1.606500,0.007509
1.607000,0.018779
1.607500,0.026508
1.608000,0.031660
1.608500,0.034880
1.609000,0.041643
1.609500,0.046795
1.610000,0.050016
1.610500,0.053880
1.611000,0.053558
1.611500,0.049050
1.612000,0.041965
1.612500,0.029084
1.613000,0.016525
1.613500,0.007187
1.614000,0.006864
1.614500,0.022000
1.615000,0.039389
1.615500,0.049694
1.616000,0.057422
1.616500,0.062897
1.617000,0.070303
1.617500,0.076099
1.618000,0.078032
1.618500,0.079320
1.619000,0.079320
1.619500,0.072235
1.620000,0.061930
1.620500,0.052914
1.621000,0.043897
1.621500,0.035525
1.622000,0.024254
1.622500,0.013949
1.623000,0.010085
1.623500,0.023610
1.624000,0.037135
1.624500,0.046795
1.625000,0.050338
1.625500,0.055812
1.626000,0.056456
1.626500,0.058388
1.627000,0.059998
1.627500,0.059354
1.628000,0.054524
1.628500,0.046795
1.629000,0.035847
1.629500,0.024254
1.630000,0.012983
1.630500,0.004610
1.631000,0.013627
1.631500,0.026508
1.632000,0.040999
1.632500,0.047117
1.633000,0.056134
1.633500,0.060964
1.634000,0.062897
1.634500,0.064829
1.635000,0.066761
1.635500,0.062574
1.636000,0.054524
1.636500,0.037779
1.637000,0.023288
1.637500,0.010729
1.638000,0.003966
1.638500,0.006542
1.639000,0.012983
1.639500,0.024898
1.640000,0.036169
1.640500,0.045507
1.641000,0.049050
1.641500,0.050016
1.642000,0.055168
1.642500,0.048727
1.643000,0.049050
1.643500,0.045829
1.644000,0.037457
1.644500,0.028440
1.645000,0.017813
1.645500,0.005576
1.646000,0.006220
1.646500,-0.000220
1.647000,0.008475
1.647500,0.020711
1.648000,0.032304
1.648500,0.044219
1.649000,0.050982
1.649500,0.059354
1.650000,0.059676
1.650500,0.064829
1.651000,0.067727
1.651500,0.072235
1.652000,0.069659
1.652500,0.065473
1.653000,0.058066
1.653500,0.047761
1.654000,0.037779
1.654500,0.028762
1.655000,0.018135
1.655500,0.011373
1.656000,0.002678
1.656500,0.016203
1.657000,0.028762
1.657500,0.037457
1.658000,0.047439
1.658500,0.051626
1.659000,0.054846
1.659500,0.053236
1.660000,0.054524
1.660500,0.052270
1.661000,0.048083
1.661500,0.041321
1.662000,0.032948
1.662500,0.025220
1.663000,0.019101
1.663500,0.008797
1.664000,-0.001830
1.664500,0.019423
1.665000,0.033270
1.665500,0.042609
1.666000,0.049694
1.666500,0.055490
1.667000,0.056134
1.667500,0.061608
1.668000,0.066439
1.668500,0.067083
1.669000,0.065473
1.669500,0.059032
1.670000,0.046473
1.670500,0.033592
1.671000,0.021356
1.671500,0.014271
1.672000,0.008475
1.672500,0.003644
1.673000,0.018135
1.673500,0.032626
1.674000,0.042609
1.674500,0.049050
1.675000,0.053236
1.675500,0.053880
1.676000,0.053236
1.676500,0.054202
1.677000,0.050982
1.677500,0.046151
1.678000,0.040999
1.678500,0.026186
1.679000,0.018135
1.679500,0.013627
1.680000,0.008797
1.680500,0.003000
1.681000,0.009763
1.681500,0.022000
1.682000,0.037779
1.682500,0.053558
1.683000,0.063863
1.683500,0.068371
1.684000,0.077388
1.684500,0.078354
1.685000,0.076743
1.685500,0.071591
1.686000,0.064507
1.686500,0.055812
1.687000,0.045507
1.687500,0.038101
1.688000,0.030050
1.688500,0.022000
1.689000,0.017491
1.689500,0.004610
1.690000,0.004932
1.690500,0.012339
1.691000,0.014915
1.691500,0.017491
1.692000,0.018457
1.692500,0.026508
1.693000,0.027152
1.693500,0.029728
1.694000,0.031660
1.694500,0.027474
1.695000,0.020711
1.695500,0.014915
1.696000,0.007831
1.696500,0.001712
1.697000,0.004288
1.697500,0.009119
1.698000,0.019745
1.698500,0.028440
1.699000,0.035525
1.699500,0.039389
1.700000,0.041965
1.700500,0.043897
1.701000,0.044541
1.701500,0.044219
1.702000,0.041321
1.702500,0.029406
1.703000,0.016525
1.703500,0.005576
1.704000,0.009763
1.704500,0.020711
1.705000,0.031338
1.705500,0.037779
1.706000,0.046795
1.706500,0.054202
1.707000,0.058388
1.707500,0.062252
1.708000,0.065795
1.708500,0.066117
1.709000,0.070625
1.709500,0.069659
1.710000,0.069337
1.710500,0.064185
1.711000,0.060642
1.711500,0.050660
1.712000,0.039711
1.712500,0.031660
1.713000,0.025864
1.713500,0.014271
1.714000,0.002356
1.714500,0.016203
1.715000,0.033592
1.715500,0.038745
1.716000,0.046151
1.716500,0.050338
1.717000,0.050016
1.717500,0.050982
1.718000,0.047761
1.718500,0.043575
1.719000,0.039389
1.719500,0.035847
1.720000,0.028440
1.720500,0.010085
1.721000,0.001390
1.721500,0.014593
1.722000,0.031660
1.722500,0.039389
1.723000,0.051304
1.723500,0.060964
1.724000,0.062252
1.724500,0.065795
1.725000,0.065151
1.725500,0.064829
1.726000,0.058066
1.726500,0.051948
1.727000,0.042609
1.727500,0.031660
1.728000,0.013305
1.728500,0.002678
1.729000,0.004288
1.729500,0.002356
1.730000,-0.000864
1.730500,0.004610
1.731000,0.022322
1.731500,0.038745
1.732000,0.053558
1.732500,0.056134
1.733000,0.063219
1.733500,0.065795
1.734000,0.073523
1.734500,0.074811
1.735000,0.073201
1.735500,0.069015
1.736000,0.062574
1.736500,0.050016
1.737000,0.039711
1.737500,0.026186
1.738000,0.015237
1.738500,0.006864
1.739000,0.019423
1.739500,0.035525
1.740000,0.050660
1.740500,0.060642
1.741000,0.069015
1.741500,0.076099
1.742000,0.078998
1.742500,0.082218
1.743000,0.084472
1.743500,0.082540
1.744000,0.075455
1.744500,0.067727
1.745000,0.051948
1.745500,0.035847
1.746000,0.018457
1.746500,0.003644
1.747000,0.012661
1.747500,0.032304
1.748000,0.050660
1.748500,0.066117
1.749000,0.075455
1.749500,0.082862
1.750000,0.078998
1.750500,0.075133
1.751000,0.072235
1.751500,0.071913
1.752000,0.069015
1.752500,0.066439
1.753000,0.060320
1.753500,0.047761
1.754000,0.030050
1.754500,0.013949
1.755000,0.003966
1.755500,0.007509
1.756000,0.020067
1.756500,0.034880
1.757000,0.048083
1.757500,0.052592
1.758000,0.054524
1.758500,0.054202
1.759000,0.056456
1.759500,0.057744
1.760000,0.058388
1.760500,0.055812
1.761000,0.051626
1.761500,0.042609
1.762000,0.033592
1.762500,0.022966
1.763000,0.016525
1.763500,0.010407
1.764000,0.007187
1.764500,0.004932
1.765000,0.012339
1.765500,0.021033
1.766000,0.028440
1.766500,0.036813
1.767000,0.041321
1.767500,0.051626
1.768000,0.057744
1.768500,0.063541
1.769000,0.070947
1.769500,0.076421
1.770000,0.074167
1.770500,0.069659
1.771000,0.059676
1.771500,0.052270
1.772000,0.039711
1.772500,0.021033
1.773000,0.003322
1.773500,0.018135
1.774000,0.031660
1.774500,0.044541
1.775000,0.056456
1.775500,0.062252
1.776000,0.067083
1.776500,0.068371
1.777000,0.064829
1.777500,0.060642
1.778000,0.051304
1.778500,0.037135
1.779000,0.026508
1.779500,0.012017
1.780000,0.002678
1.780500,0.008475
1.781000,0.021678
1.781500,0.036491
1.782000,0.048405
1.782500,0.054846
1.783000,0.059998
1.783500,0.057744
1.784000,0.061930
1.784500,0.060320
1.785000,0.059676
1.785500,0.051948
1.786000,0.045507
1.786500,0.034236
1.787000,0.018779
1.787500,0.008475
1.788000,0.002678
1.788500,0.007509
1.789000,0.017491
1.789500,0.026508
1.790000,0.036491
1.790500,0.041321
1.791000,0.041321
1.791500,0.042609
1.792000,0.035847
1.792500,0.034880
1.793000,0.033914
1.793500,0.035203
1.794000,0.034236
1.794500,0.030050
1.795000,0.018135
1.795500,0.005254
1.796000,0.009119
1.796500,0.024576
1.797000,0.041321
1.797500,0.052914
1.798000,0.067083
1.798500,0.075455
1.799000,0.077710
1.799500,0.080930
1.800000,0.083184
1.800500,0.081896
1.801000,0.081896
1.801500,0.085760
1.802000,0.083506
1.802500,0.075777
1.803000,0.066117
1.803500,0.055168
1.804000,0.039067
1.804500,0.027152
1.805000,0.015559
1.805500,0.008153
1.806000,0.004932
1.806500,0.017169
1.807000,0.026830
1.807500,0.039711
1.808000,0.047761
1.808500,0.053880
1.809000,0.057744
1.809500,0.059676
1.810000,0.056456
1.810500,0.052270
1.811000,0.048727
1.811500,0.038423
1.812000,0.024898
1.812500,0.012339
1.813000,0.003322
1.813500,0.008475
1.814000,0.021033
1.814500,0.035525
1.815000,0.046795
1.815500,0.048405
1.816000,0.051304
1.816500,0.051304
1.817000,0.050338
1.817500,0.053236
1.818000,0.055490
1.818500,0.054524
1.819000,0.051948
1.819500,0.043897
1.820000,0.033914
1.820500,0.023932
1.821000,0.011373
1.821500,0.004288
1.822000,0.014593
1.822500,0.023288
1.823000,0.037135
1.823500,0.051304
1.824000,0.056778
1.824500,0.065473
1.825000,0.068693
1.825500,0.073523
1.826000,0.073845
1.826500,0.071591
1.827000,0.065795
1.827500,0.059354
1.828000,0.056456
1.828500,0.049050
1.829000,0.042931
1.829500,0.031982
1.830000,0.022966
1.830500,0.013949
1.831000,0.002678
1.831500,0.007187
1.832000,0.014271
1.832500,0.020389
1.833000,0.023932
1.833500,0.026508
1.834000,0.031982
1.834500,0.031982
1.835000,0.031982
1.835500,0.029406
1.836000,0.027474
1.836500,0.019101
1.837000,0.017813
1.837500,0.009119
1.838000,0.010407
1.838500,0.010085
1.839000,0.004932
1.839500,0.007831
1.840000,0.020389
1.840500,0.025864
1.841000,0.033914
1.841500,0.041965
1.842000,0.046151
1.842500,0.050338
1.843000,0.053236
1.843500,0.053880
1.844000,0.051948
1.844500,0.046473
1.845000,0.036813
1.845500,0.027474
1.846000,0.022644
1.846500,0.012661
1.847000,-0.002474
1.847500,0.012339
1.848000,0.034880
1.848500,0.055490
1.849000,0.067083
1.849500,0.075133
1.850000,0.076743
1.850500,0.070947
1.851000,0.066439
1.851500,0.063219
1.852000,0.059676
1.852500,0.050660
1.853000,0.038101
1.853500,0.027796
1.854000,0.015881
1.854500,0.004932
1.855000,0.008475
1.855500,0.019745
1.856000,0.031982
1.856500,0.044219
1.857000,0.055490
1.857500,0.062897
1.858000,0.069015
1.858500,0.061930
1.859000,0.061608
1.859500,0.054524
1.860000,0.048727
1.860500,0.040033
1.861000,0.034558
1.861500,0.020389
1.862000,0.009441
1.862500,0.000424
1.863000,0.008475
1.863500,0.012983
1.864000,0.011695
1.864500,0.021356
1.865000,0.037457
1.865500,0.048083
1.866000,0.048727
1.866500,0.048727
1.867000,0.053236
1.867500,0.059354
1.868000,0.062252
1.868500,0.059676
1.869000,0.051948
1.869500,0.041965
1.870000,0.032626
1.870500,0.024576
1.871000,0.015559
1.871500,0.008475
1.872000,0.004932
1.872500,0.013949
1.873000,0.025542
1.873500,0.035525
1.874000,0.042287
1.874500,0.049372
1.875000,0.056134
1.875500,0.064185
1.876000,0.064829
1.876500,0.060964
1.877000,0.054846
1.877500,0.049372
1.878000,0.044863
1.878500,0.036813
1.879000,0.036491
1.879500,0.031338
1.880000,0.023610
1.880500,0.014271
1.881000,0.003966
1.881500,0.011051
1.882000,0.023288
1.882500,0.031982
1.883000,0.040999
1.883500,0.044219
1.884000,0.051626
1.884500,0.063863
1.885000,0.067405
1.885500,0.065795
1.886000,0.063863
1.886500,0.051948
1.887000,0.042609
1.887500,0.033914
1.888000,0.021356
1.888500,0.005576
1.889000,0.012339
1.889500,0.019745
1.890000,0.024254
1.890500,0.029084
1.891000,0.036169
1.891500,0.042609
1.892000,0.047117
1.892500,0.050660
1.893000,0.055812
1.893500,0.058066
1.894000,0.056778
1.894500,0.051626
1.895000,0.043575
1.895500,0.028440
1.896000,0.020389
1.896500,0.009441
1.897000,-0.003440
1.897500,0.012339
1.898000,0.026830
1.898500,0.038745
1.899000,0.051948
1.899500,0.059998
1.900000,0.066439
1.900500,0.070947
1.901000,0.075777
1.901500,0.078032
1.902000,0.074489
1.902500,0.068371
1.903000,0.059032
1.903500,0.044219
1.904000,0.029084
1.904500,0.019423
1.905000,0.006542
1.905500,0.006542
1.906000,0.021033
1.906500,0.034236
1.907000,0.047117
1.907500,0.059676
1.908000,0.065795
1.908500,0.066761
1.909000,0.070303
1.909500,0.071913
1.910000,0.065473
1.910500,0.054846
1.911000,0.043253
1.911500,0.028762
1.912000,0.014271
1.912500,0.003322
1.913000,0.007831
1.913500,0.024898
1.914000,0.031982
1.914500,0.038745
1.915000,0.045829
1.915500,0.046473
1.916000,0.052592
1.916500,0.057422
1.917000,0.066117
1.917500,0.071913
1.918000,0.070947
1.918500,0.065795
1.919000,0.055812
1.919500,0.046795
1.920000,0.036491
1.920500,0.026830
1.921000,0.017813
1.921500,0.011373
1.922000,0.002678
1.922500,0.008475
1.923000,0.014593
1.923500,0.022966
1.924000,0.031016
1.924500,0.042609
1.925000,0.052914
1.925500,0.060964
1.926000,0.066439
1.926500,0.067405
1.927000,0.069015
1.927500,0.067405
1.928000,0.064829
1.928500,0.055812
1.929000,0.048727
1.929500,0.039711
1.930000,0.036813
1.930500,0.031660
1.931000,0.018135
1.931500,-0.000220
1.932000,0.017491
1.932500,0.038745
1.933000,0.059032
1.933500,0.070303
1.934000,0.070947
1.934500,0.073523
1.935000,0.079642
1.935500,0.082218
1.936000,0.074167
1.936500,0.055168
1.937000,0.038423
1.937500,0.026508
1.938000,0.016525
1.938500,0.003644
1.939000,0.018135
1.939500,0.046151
1.940000,0.063219
1.940500,0.077710
1.941000,0.082862
1.941500,0.080608
1.942000,0.079320
1.942500,0.078032
1.943000,0.074811
1.943500,0.067727
1.944000,0.059032
1.944500,0.044863
1.945000,0.027796
1.945500,0.007187
1.946000,-0.002474
1.946500,0.009441
1.947000,0.016847
1.947500,0.022966
1.948000,0.031660
1.948500,0.040355
1.949000,0.041965
1.949500,0.044541
1.950000,0.044541
1.950500,0.040677
1.951000,0.045507
1.951500,0.038101
1.952000,0.029728
1.952500,0.021033
1.953000,0.010729
1.953500,0.004932
1.954000,0.006220
1.954500,0.012661
1.955000,0.017491
1.955500,0.022644
1.956000,0.023932
1.956500,0.027152
1.957000,0.027796
1.957500,0.037457
1.958000,0.047761
1.958500,0.055490
1.959000,0.061930
1.959500,0.064829
1.960000,0.059032
1.960500,0.054524
1.961000,0.047439
1.961500,0.036491
1.962000,0.024576
1.962500,0.020711
1.963000,0.014271
1.963500,0.007509
1.964000,-0.001508
1.964500,0.016525
1.965000,0.031016
1.965500,0.038745
1.966000,0.043897
1.966500,0.049050
1.967000,0.054202
1.967500,0.060320
1.968000,0.061930
1.968500,0.058710
1.969000,0.049694
1.969500,0.039389
1.970000,0.026830
1.970500,0.013627
1.971000,0.004610
1.971500,0.008797
1.972000,0.017169
1.972500,0.029084
1.973000,0.046151
1.973500,0.059676
1.974000,0.064507
1.974500,0.069337
1.975000,0.071269
1.975500,0.072557
1.976000,0.070625
1.976500,0.069981
1.977000,0.068371
1.977500,0.063541
1.978000,0.051304
1.978500,0.037779
1.979000,0.024576
1.979500,0.010729
1.980000,0.002034
1.980500,0.007831
1.981000,0.025542
1.981500,0.039711
1.982000,0.049372
1.982500,0.057100
1.983000,0.062574
1.983500,0.065795
1.984000,0.068371
1.984500,0.064507
1.985000,0.060320
1.985500,0.058066
1.986000,0.052270
1.986500,0.038745
1.987000,0.025542
1.987500,0.012339
1.988000,0.003322
1.988500,0.007187
1.989000,0.018135
1.989500,0.032304
1.990000,0.047439
1.990500,0.055490
1.991000,0.060320
1.991500,0.063541
1.992000,0.064507
1.992500,0.065795
1.993000,0.064185
1.993500,0.059676
1.994000,0.052592
1.994500,0.044219
1.995000,0.031338
1.995500,0.012661
1.996000,0.003644
1.996500,0.006542
1.997000,0.015881
1.997500,0.028440
1.998000,0.041965
1.998500,0.051304
1.999000,0.057100
1.999500,0.061608
2.000000,0.061608
2.000500,0.063219
2.001000,0.061930
2.001500,0.062252
2.002000,0.057422
2.002500,0.052914
2.003000,0.043253
2.003500,0.035525
2.004000,0.023932
2.004500,0.014915
2.005000,0.005576
2.005500,0.002356
2.006000,0.015237
2.006500,0.034880
2.007000,0.056456
2.007500,0.069015
2.008000,0.075455
2.008500,0.071913
2.009000,0.070947
2.009500,0.061930
2.010000,0.060964
2.010500,0.055490
2.011000,0.050660
2.011500,0.040677
2.012000,0.028440
2.012500,0.013949
2.013000,0.001068
2.013500,0.011051
2.014000,0.023932
2.014500,0.041321
2.015000,0.051304
2.015500,0.056778
2.016000,0.061286
2.016500,0.063863
2.017000,0.066117
2.017500,0.069659
2.018000,0.067405
2.018500,0.059354
2.019000,0.053558
2.019500,0.042287
2.020000,0.025542
2.020500,0.009763
2.021000,0.006542
2.021500,0.022644
2.022000,0.032626
2.022500,0.045185
2.023000,0.063219
2.023500,0.067727
2.024000,0.070625
2.024500,0.069015
2.025000,0.064185
2.025500,0.059354
2.026000,0.053236
2.026500,0.042931
2.027000,0.042287
2.027500,0.043897
2.028000,0.031660
2.028500,0.017491
2.029000,0.009763
2.029500,0.004610
2.030000,0.006864
2.030500,0.023288
2.031000,0.034880
2.031500,0.045185
2.032000,0.050982
2.032500,0.054202
2.033000,0.059032
2.033500,0.059354
2.034000,0.060964
2.034500,0.062574
2.035000,0.058388
2.035500,0.053558
2.036000,0.047761
2.036500,0.034880
2.037000,0.022322
2.037500,0.012017
2.038000,0.003644
2.038500,0.009441
2.039000,0.022000
2.039500,0.040999
2.040000,0.052592
2.040500,0.060642
2.041000,0.066761
2.041500,0.072235
2.042000,0.069981
2.042500,0.071913
2.043000,0.070303
2.043500,0.063863
2.044000,0.059354
2.044500,0.051948
2.045000,0.039711
2.045500,0.028118
2.046000,0.017813
2.046500,0.007831
2.047000,-0.002474
2.047500,0.012017
2.048000,0.027152
2.048500,0.036169
2.049000,0.040999
2.049500,0.045829
2.050000,0.047117
2.050500,0.049372
2.051000,0.054524
2.051500,0.052914
2.052000,0.051626
2.052500,0.048083
2.053000,0.041965
2.053500,0.029084
2.054000,0.013305
2.054500,0.001390
2.055000,0.010085
2.055500,0.019745
2.056000,0.031982
2.056500,0.042931
2.057000,0.049694
2.057500,0.054524
2.058000,0.060642
2.058500,0.065151
2.059000,0.072879
2.059500,0.081252
2.060000,0.082862
2.060500,0.076743
2.061000,0.068371
2.061500,0.057100
2.062000,0.043575
2.062500,0.031338
2.063000,0.022000
2.063500,0.010407
2.064000,-0.003118
2.064500,0.019101
2.065000,0.036491
2.065500,0.047761
2.066000,0.048405
2.066500,0.049050
2.067000,0.047117
2.067500,0.052270
2.068000,0.055812
2.068500,0.057422
2.069000,0.054846
2.069500,0.046795
2.070000,0.035847
2.070500,0.025864
2.071000,0.014593
2.071500,0.003966
2.072000,0.011373
2.072500,0.025864
2.073000,0.044219
2.073500,0.056778
2.074000,0.066117
2.074500,0.073845
2.075000,0.078998
2.075500,0.084472
2.076000,0.090590
2.076500,0.087048
2.077000,0.083506
2.077500,0.078032
2.078000,0.063863
2.078500,0.050338
2.079000,0.031660
2.079500,0.017491
2.080000,0.002678
2.080500,0.012983
2.081000,0.035847
2.081500,0.055812
2.082000,0.066439
2.082500,0.071591
2.083000,0.074489
2.083500,0.072557
2.084000,0.069981
2.084500,0.067083
2.085000,0.061930
2.085500,0.059032
2.086000,0.054846
2.086500,0.043575
2.087000,0.031016
2.087500,0.019101
2.088000,0.008797
2.088500,0.003644
2.089000,0.015237
2.089500,0.028762
2.090000,0.040999
2.090500,0.052270
2.091000,0.059354
2.091500,0.064829
2.092000,0.062574
2.092500,0.061930
2.093000,0.064829
2.093500,0.059676
2.094000,0.053880
2.094500,0.044863
2.095000,0.031660
2.095500,0.017169
2.096000,0.003000
2.096500,0.009441
2.097000,0.017169
2.097500,0.028440
2.098000,0.045507
2.098500,0.056456
2.099000,0.057744
2.099500,0.058388
2.100000,0.056778
2.100500,0.057422
2.101000,0.049050
2.101500,0.043253
2.102000,0.040033
2.102500,0.036813
2.103000,0.031016
2.103500,0.016525
2.104000,0.002034
2.104500,0.007187
2.105000,0.010407
2.105500,0.011051
2.106000,0.012017
2.106500,0.011695
2.107000,0.020389
2.107500,0.033270
2.108000,0.043575
2.108500,0.050016
2.109000,0.057744
2.109500,0.061286
2.110000,0.060964
2.110500,0.059676
2.111000,0.055490
2.111500,0.042287
2.112000,0.027474
2.112500,0.019101
2.113000,0.010085
2.113500,0.000746
2.114000,0.008797
2.114500,0.026830
2.115000,0.041965
2.115500,0.052270
2.116000,0.060642
2.116500,0.065151
2.117000,0.067405
2.117500,0.069981
2.118000,0.067405
2.118500,0.061930
2.119000,0.057744
2.119500,0.050016
2.120000,0.038423
2.120500,0.025864
2.121000,0.018135
2.121500,0.009441
2.122000,0.001712
2.122500,0.017491
2.123000,0.039389
2.123500,0.053558
2.124000,0.063541
2.124500,0.072879
2.125000,0.078998
2.125500,0.085116
2.126000,0.088014
2.126500,0.086082
2.127000,0.078354
2.127500,0.074167
2.128000,0.055168
2.128500,0.041321
2.129000,0.025542
2.129500,0.009119
2.130000,0.006542
2.130500,0.022322
2.131000,0.042931
2.131500,0.060964
2.132000,0.073523
2.132500,0.078676
2.133000,0.086404
2.133500,0.089302
2.134000,0.089302
2.134500,0.083506
2.135000,0.075455
2.135500,0.063541
2.136000,0.056778
2.136500,0.043253
2.137000,0.032626
2.137500,0.019423
2.138000,0.007831
2.138500,0.006220
2.139000,0.013627
2.139500,0.028762
2.140000,0.041321
2.140500,0.051948
2.141000,0.058388
2.141500,0.062897
2.142000,0.066117
2.142500,0.069337
2.143000,0.067727
2.143500,0.065473
2.144000,0.060642
2.144500,0.049694
2.145000,0.032948
2.145500,0.017813
2.146000,0.005898
2.146500,0.003966
2.147000,0.015237
2.147500,0.026830
2.148000,0.039711
2.148500,0.049050
2.149000,0.053558
2.149500,0.057422
2.150000,0.059676
2.150500,0.058066
2.151000,0.056134
2.151500,0.058066
2.152000,0.058710
2.152500,0.057422
2.153000,0.048083
2.153500,0.037135
2.154000,0.031338
2.154500,0.027152
2.155000,0.018135
2.155500,0.003322
2.156000,0.024576
2.156500,0.049050
2.157000,0.062252
2.157500,0.063863
2.158000,0.066761
2.158500,0.069659
2.159000,0.068693
2.159500,0.068049
2.160000,0.063863
2.160500,0.062897
2.161000,0.056456
2.161500,0.047761
2.162000,0.033592
2.162500,0.020067
2.163000,0.011373
2.163500,0.001390
2.164000,0.011051
2.164500,0.023610
2.165000,0.035525
2.165500,0.044219
2.166000,0.055812
2.166500,0.061608
2.167000,0.068693
2.167500,0.073523
2.168000,0.068693
2.168500,0.068693
2.169000,0.062897
2.169500,0.057422
2.170000,0.045185
2.170500,0.033592
2.171000,0.020711
2.171500,0.007509
2.172000,0.012017
2.172500,0.024576
2.173000,0.036491
2.173500,0.045507
2.174000,0.051948
2.174500,0.058388
2.175000,0.061286
2.175500,0.061930
2.176000,0.064185
2.176500,0.063219
2.177000,0.057744
2.177500,0.055168
2.178000,0.047761
2.178500,0.036491
2.179000,0.026186
2.179500,0.020389
2.180000,0.011695
2.180500,0.005576
2.181000,0.005254
2.181500,0.017491
2.182000,0.027474
2.182500,0.040355
2.183000,0.050982
2.183500,0.060642
2.184000,0.069337
2.184500,0.072235
2.185000,0.068049
2.185500,0.064507
2.186000,0.060642
2.186500,0.050338
2.187000,0.039389
2.187500,0.024254
2.188000,0.012017
2.188500,0.001712
2.189000,0.011051
2.189500,0.027796
2.190000,0.041643
2.190500,0.053236
2.191000,0.062574
2.191500,0.068049
2.192000,0.067405
2.192500,0.072557
2.193000,0.072235
2.193500,0.065795
2.194000,0.059354
2.194500,0.047117
2.195000,0.025542
2.195500,0.012339
2.196000,0.002678
2.196500,0.005898
2.197000,0.013305
2.197500,0.020711
2.198000,0.030694
2.198500,0.038101
2.199000,0.040999
2.199500,0.043575
2.200000,0.044541
2.200500,0.048083
2.201000,0.045507
2.201500,0.044541
2.202000,0.042931
2.202500,0.039711
2.203000,0.037779
2.203500,0.039067
2.204000,0.038101
2.204500,0.030372
2.205000,0.024898
2.205500,0.014593
2.206000,0.003322
2.206500,0.019101
2.207000,0.033914
2.207500,0.041321
2.208000,0.049694
2.208500,0.056456
2.209000,0.066439
2.209500,0.074489
2.210000,0.067727
2.210500,0.066761
2.211000,0.059032
2.211500,0.047117
2.212000,0.034880
2.212500,0.027152
2.213000,0.019745
2.213500,0.015559
2.214000,0.007187
2.214500,0.006220
2.215000,0.023288
2.215500,0.038745
2.216000,0.052270
2.216500,0.063863
2.217000,0.074489
2.217500,0.079964
2.218000,0.082862
2.218500,0.077066
2.219000,0.069981
2.219500,0.058066
2.220000,0.050016
2.220500,0.040355
2.221000,0.025542
2.221500,0.009119
2.222000,0.006220
2.222500,0.020067
2.223000,0.034558
2.223500,0.044863
2.224000,0.044219
2.224500,0.046151
2.225000,0.049694
2.225500,0.052914
2.226000,0.056456
2.226500,0.054202
2.227000,0.048083
2.227500,0.042931
2.228000,0.033592
2.228500,0.022966
2.229000,0.012661
2.229500,0.007509
2.230000,0.006220
2.230500,0.016203
2.231000,0.030050
2.231500,0.046151
2.232000,0.060642
2.232500,0.056778
2.233000,0.048405
2.233500,0.030050
2.234000,0.018779
2.234500,0.007509
2.235000,0.010407
2.235500,0.028440
2.236000,0.034236
2.236500,0.017813
2.237000,0.000102
2.237500,0.009119
2.238000,0.007187
2.238500,0.009763
2.239000,0.001712
2.239500,0.027474
2.240000,0.045829
2.240500,0.050338
2.241000,0.052914
2.241500,0.048405
2.242000,0.045507
2.242500,0.046795
2.243000,0.045829
2.243500,0.045185
2.244000,0.054202
2.244500,0.055812
2.245000,0.051948
2.245500,0.045507
2.246000,0.035203
2.246500,0.018457
2.247000,0.003322
2.247500,0.012661
2.248000,0.032948
2.248500,0.051626
2.249000,0.061286
2.249500,0.068693
2.250000,0.074489
2.250500,0.074489
2.251000,0.074811
2.251500,0.069015
2.252000,0.062252
2.252500,0.054524
2.253000,0.044541
2.253500,0.032626
2.254000,0.020711
2.254500,0.007831
2.255000,0.004932
2.255500,0.014271
2.256000,0.024576
2.256500,0.036813
2.257000,0.044541
2.257500,0.054202
2.258000,0.059354
2.258500,0.062574
2.259000,0.065473
2.259500,0.064185
2.260000,0.054524
2.260500,0.044219
2.261000,0.037779
2.261500,0.028118
2.262000,0.018779
2.262500,0.012661
2.263000,0.005576
2.263500,0.000102
2.264000,0.005254
2.264500,0.016525
2.265000,0.020067
2.265500,0.017169
2.266000,0.011373
2.266500,0.004288
2.267000,0.003000
2.267500,0.010085
2.268000,0.015559
2.268500,0.027474
2.269000,0.045185
2.269500,0.053558
2.270000,0.061286
2.270500,0.062252
2.271000,0.046473
2.271500,0.029084
2.272000,0.013305
2.272500,0.007509
2.273000,0.029728
2.273500,0.046473
2.274000,0.060320
2.274500,0.063541
2.275000,0.064185
2.275500,0.069659
2.276000,0.071913
2.276500,0.069981
2.277000,0.065151
2.277500,0.059032
2.278000,0.047439
2.278500,0.033270
2.279000,0.020067
2.279500,0.009441
2.280000,-0.003440
2.280500,0.014593
2.281000,0.026830
2.281500,0.042609
2.282000,0.053880
2.282500,0.062574
2.283000,0.069981
2.283500,0.076099
2.284000,0.081896
2.284500,0.082218
2.285000,0.079964
2.285500,0.073523
2.286000,0.067083
2.286500,0.054846
2.287000,0.040677
2.287500,0.029084
2.288000,0.016525
2.288500,0.004288
2.289000,0.008153
2.289500,0.018779
2.290000,0.030372
2.290500,0.040355
2.291000,0.045507
2.291500,0.047761
2.292000,0.054524
2.292500,0.059676
2.293000,0.062897
2.293500,0.061286
2.294000,0.058710
2.294500,0.055490
2.295000,0.046473
2.295500,0.038101
2.296000,0.031338
2.296500,0.034880
2.297000,0.024254
2.297500,0.007509
2.298000,0.020711
2.298500,0.040355
2.299000,0.044863
2.299500,0.050982
2.300000,0.053236
2.300500,0.059676
2.301000,0.069337
2.301500,0.075133
2.302000,0.072879
2.302500,0.060642
2.303000,0.042931
2.303500,0.025220
2.304000,0.009441
2.304500,0.001068
2.305000,0.009119
2.305500,0.017813
2.306000,0.035525
2.306500,0.051626
2.307000,0.064507
2.307500,0.071269
2.308000,0.075133
2.308500,0.079964
2.309000,0.083184
2.309500,0.083506
2.310000,0.078354
2.310500,0.072879
2.311000,0.067727
2.311500,0.051948
2.312000,0.037135
2.312500,0.021678
2.313000,0.009763
2.313500,-0.003440
2.314000,0.009441
2.314500,0.014915
2.315000,0.026830
2.315500,0.031016
2.316000,0.028440
2.316500,0.031016
2.317000,0.031982
2.317500,0.031982
2.318000,0.024254
2.318500,0.012339
2.319000,0.005576
2.319500,0.004932
2.320000,0.008475
2.320500,0.003966
2.321000,0.008475
2.321500,0.021033
2.322000,0.027152
2.322500,0.032626
2.323000,0.040999
2.323500,0.050338
2.324000,0.055490
2.324500,0.056134
2.325000,0.065795
2.325500,0.083184
2.326000,0.098319
2.326500,0.114420
2.327000,0.122149
2.327500,0.116030
2.328000,0.110556
2.328500,0.098641
2.329000,0.092523
2.329500,0.090590
2.330000,0.091879
2.330500,0.095421
2.331000,0.094133
2.331500,0.080286
2.332000,0.062574
2.332500,0.032948
2.333000,-0.001186
2.333500,0.027796
2.334000,0.046151
2.334500,0.055490
2.335000,0.071913
2.335500,0.083506
2.336000,0.088336
2.336500,0.080930
2.337000,0.063863
2.337500,0.045507
2.338000,0.031982
2.338500,0.016847
2.339000,0.005898
2.339500,0.004288
2.340000,0.012983
2.340500,0.024898
2.341000,0.037135
2.341500,0.048083
2.342000,0.053880
2.342500,0.066117
2.343000,0.078998
2.343500,0.074811
2.344000,0.068693
2.344500,0.058066
2.345000,0.038101
2.345500,0.028440
2.346000,0.018779
2.346500,0.006220
2.347000,0.010729
2.347500,0.035847
2.348000,0.064185
2.348500,0.088336
2.349000,0.097675
2.349500,0.095099
2.350000,0.089302
2.350500,0.082218
2.351000,0.080608
2.351500,0.078354
2.352000,0.077710
2.352500,0.075777
2.353000,0.067405
2.353500,0.047117
2.354000,0.022644
2.354500,0.007187
2.355000,0.004610
2.355500,0.012661
2.356000,0.027474
2.356500,0.041321
2.357000,0.055490
2.357500,0.064829
2.358000,0.069659
2.358500,0.069015
2.359000,0.069981
2.359500,0.068693
2.360000,0.069659
2.360500,0.059676
2.361000,0.049050
2.361500,0.035525
2.362000,0.018135
2.362500,0.001390
2.363000,0.007831
2.363500,0.012983
2.364000,0.023288
2.364500,0.036813
2.365000,0.052592
2.365500,0.068371
2.366000,0.082540
2.366500,0.096387
2.367000,0.102183
2.367500,0.102183
2.368000,0.086404
2.368500,0.076743
2.369000,0.079320
2.369500,0.069659
2.370000,0.061608
2.370500,0.049372
2.371000,0.034236
2.371500,0.022644
2.372000,0.009763
2.372500,0.014593
2.373000,0.042609
2.373500,0.062252
2.374000,0.059032
2.374500,0.038745
2.375000,0.023610
2.375500,0.026508
2.376000,0.041965
2.376500,0.040355
2.377000,0.057100
2.377500,0.063541
2.378000,0.057100
2.378500,0.038745
2.379000,0.017813
2.379500,0.003000
2.380000,0.003966
2.380500,0.010085
2.381000,0.028118
2.381500,0.062897
2.382000,0.089624
2.382500,0.093489
2.383000,0.082218
2.383500,0.072879
2.384000,0.078998
2.384500,0.084150
2.385000,0.089302
2.385500,0.091879
2.386000,0.087370
2.386500,0.076743
2.387000,0.061930
2.387500,0.049050
2.388000,0.036491
2.388500,0.025864
2.389000,0.011373
2.389500,0.008475
2.390000,0.030050
2.390500,0.045507
2.391000,0.052592
2.391500,0.056456
2.392000,0.059676
2.392500,0.067727
2.393000,0.069015
2.393500,0.069337
2.394000,0.066761
2.394500,0.056778
2.395000,0.040355
2.395500,0.023610
2.396000,0.001068
2.396500,0.010729
2.397000,0.017813
2.397500,0.026508
2.398000,0.041965
2.398500,0.058066
2.399000,0.062574
2.399500,0.060320
2.400000,0.063863
2.400500,0.075777
2.401000,0.086726
2.401500,0.090913
2.402000,0.087048
2.402500,0.081574
2.403000,0.072879
2.403500,0.061286
2.404000,0.047761
2.404500,0.031016
2.405000,0.017813
2.405500,0.008153
2.406000,0.010085
2.406500,0.030372
2.407000,0.048083
2.407500,0.055490
2.408000,0.063541
2.408500,0.066117
2.409000,0.073201
2.409500,0.081252
2.410000,0.081896
2.410500,0.070947
2.411000,0.050982
2.411500,0.037457
2.412000,0.017491
2.412500,-0.000864
2.413000,0.006864
2.413500,0.011373
2.414000,0.011695
2.414500,0.030694
2.415000,0.056456
2.415500,0.077066
2.416000,0.083828
2.416500,0.088014
2.417000,0.083828
2.417500,0.079964
2.418000,0.072235
2.418500,0.064829
2.419000,0.053880
2.419500,0.040033
2.420000,0.026830
2.420500,0.010085
2.421000,0.003322
2.421500,0.002678
2.422000,0.007509
2.422500,0.007187
2.423000,0.013627
2.423500,0.028440
2.424000,0.045507
2.424500,0.056134
2.425000,0.056456
2.425500,0.054202
2.426000,0.056134
2.426500,0.054202
2.427000,0.050016
2.427500,0.041643
2.428000,0.035525
2.428500,0.027152
2.429000,0.015237
2.429500,0.006864
2.430000,-0.001186
2.430500,0.012983
2.431000,0.023932
2.431500,0.040999
2.432000,0.053558
2.432500,0.059998
2.433000,0.064507
2.433500,0.067083
2.434000,0.073201
2.434500,0.081574
2.435000,0.080286
2.435500,0.075133
2.436000,0.070303
2.436500,0.063541
2.437000,0.045829
2.437500,0.026508
2.438000,0.012017
2.438500,0.000746
2.439000,0.013305
2.439500,0.032304
2.440000,0.048727
2.440500,0.055812
2.441000,0.063863
2.441500,0.063219
2.442000,0.059032
2.442500,0.071591
2.443000,0.071913
2.443500,0.070625
2.444000,0.059676
2.444500,0.050982
2.445000,0.037779
2.445500,0.022966
2.446000,0.014271
2.446500,0.003322
2.447000,0.000424
2.447500,0.012661
2.448000,0.028440
2.448500,0.046473
2.449000,0.059998
2.449500,0.068049
2.450000,0.071591
2.450500,0.076099
2.451000,0.082218
2.451500,0.080930
2.452000,0.076743
2.452500,0.069015
2.453000,0.058388
2.453500,0.039711
2.454000,0.025864
2.454500,0.015881
2.455000,0.006542
2.455500,0.009119
2.456000,0.022322
2.456500,0.038423
2.457000,0.050338
2.457500,0.059354
2.458000,0.059998
2.458500,0.063541
2.459000,0.067083
2.459500,0.065795
2.460000,0.062574
2.460500,0.059998
2.461000,0.056456
2.461500,0.047117
2.462000,0.033914
2.462500,0.026186
2.463000,0.013627
2.463500,0.002678
2.464000,0.011695
2.464500,0.028118
2.465000,0.043897
2.465500,0.053880
2.466000,0.060964
2.466500,0.064829
2.467000,0.067727
2.467500,0.071591
2.468000,0.073201
2.468500,0.071269
2.469000,0.066117
2.469500,0.056134
2.470000,0.046151
2.470500,0.033914
2.471000,0.019101
2.471500,0.004610
2.472000,0.011373
2.472500,0.022000
2.473000,0.038101
2.473500,0.050660
2.474000,0.059032
2.474500,0.064507
2.475000,0.065473
2.475500,0.068693
2.476000,0.074167
2.476500,0.073845
2.477000,0.069015
2.477500,0.062897
2.478000,0.054846
2.478500,0.044863
2.479000,0.029728
2.479500,0.013627
2.480000,0.003966
2.480500,0.007831
2.481000,0.017813
2.481500,0.031660
2.482000,0.045507
2.482500,0.056778
2.483000,0.063541
2.483500,0.060964
2.484000,0.065473
2.484500,0.066439
2.485000,0.066117
2.485500,0.065473
2.486000,0.060320
2.486500,0.048405
2.487000,0.034236
2.487500,0.020711
2.488000,0.011373
2.488500,0.002356
2.489000,0.013627
2.489500,0.027796
2.490000,0.041965
2.490500,0.052914
2.491000,0.060964
2.491500,0.068693
2.492000,0.070625
2.492500,0.074167
2.493000,0.072235
2.493500,0.069981
2.494000,0.064507
2.494500,0.057422
2.495000,0.042931
2.495500,0.029728
2.496000,0.017813
2.496500,0.007187
2.497000,0.004932
2.497500,0.016847
2.498000,0.033914
2.498500,0.047761
2.499000,0.056456
2.499500,0.064829
2.500000,0.067727
2.500500,0.071913
2.501000,0.077388
2.501500,0.071269
2.502000,0.060642
2.502500,0.052914
2.503000,0.047761
2.503500,0.032948
2.504000,0.025220
2.504500,0.016203
2.505000,0.005254
2.505500,0.008475
2.506000,0.020389
2.506500,0.034236
2.507000,0.050016
2.507500,0.056456
2.508000,0.061930
2.508500,0.061930
2.509000,0.065151
2.509500,0.068693
2.510000,0.071913
2.510500,0.068371
2.511000,0.060320
2.511500,0.050016
2.512000,0.036813
2.512500,0.022966
2.513000,0.010407
2.513500,-0.000864
2.514000,0.013627
2.514500,0.030694
2.515000,0.048083
2.515500,0.057744
2.516000,0.063863
2.516500,0.070303
2.517000,0.073201
2.517500,0.072235
2.518000,0.069981
2.518500,0.063863
2.519000,0.061286
2.519500,0.057744
2.520000,0.047761
2.520500,0.033914
2.521000,0.021678
2.521500,0.008797
2.522000,0.002678
2.522500,0.012339
2.523000,0.028118
2.523500,0.042287
2.524000,0.054202
2.524500,0.064185
2.525000,0.069981
2.525500,0.073845
2.526000,0.079964
2.526500,0.078998
2.527000,0.069659
2.527500,0.065473
2.528000,0.054846
2.528500,0.037135
2.529000,0.021678
2.529500,0.012339
2.530000,0.001712
2.530500,0.011695
2.531000,0.025864
2.531500,0.040999
2.532000,0.052270
2.532500,0.062574
2.533000,0.065151
2.533500,0.065795
2.534000,0.066439
2.534500,0.069659
2.535000,0.071591
2.535500,0.069015
2.536000,0.067083
2.536500,0.055168
2.537000,0.045829
2.537500,0.032948
2.538000,0.023288
2.538500,0.011373
2.539000,0.003000
2.539500,0.016203
2.540000,0.030694
2.540500,0.042931
2.541000,0.050982
2.541500,0.060320
2.542000,0.067727
2.542500,0.068371
2.543000,0.066761
2.543500,0.062574
2.544000,0.053880
2.544500,0.045185
2.545000,0.033270
2.545500,0.017169
2.546000,0.006864
2.546500,0.005254
2.547000,0.018457
2.547500,0.031982
2.548000,0.049372
2.548500,0.057422
2.549000,0.066117
2.549500,0.071913
2.550000,0.078998
2.550500,0.081896
2.551000,0.085438
2.551500,0.083828
2.552000,0.080608
2.552500,0.075777
2.553000,0.069337
2.553500,0.055168
2.554000,0.044219
2.554500,0.031338
2.555000,0.015881
2.555500,0.002034
2.556000,0.015559
2.556500,0.032626
2.557000,0.044863
2.557500,0.049372
2.558000,0.053880
2.558500,0.054524
2.559000,0.060964
2.559500,0.063863
2.560000,0.062574
2.560500,0.060320
2.561000,0.060642
2.561500,0.057422
2.562000,0.046151
2.562500,0.031982
2.563000,0.022322
2.563500,0.005576
2.564000,0.009441
2.564500,0.031660
2.565000,0.044863
2.565500,0.057422
2.566000,0.059676
2.566500,0.065473
2.567000,0.068693
2.567500,0.068371
2.568000,0.067727
2.568500,0.065151
2.569000,0.064829
2.569500,0.059998
2.570000,0.047117
2.570500,0.037135
2.571000,0.024254
2.571500,0.012339
2.572000,0.002678
2.572500,0.011373
2.573000,0.029084
2.573500,0.041965
2.574000,0.054524
2.574500,0.063863
2.575000,0.068693
2.575500,0.070947
2.576000,0.074811
2.576500,0.075455
2.577000,0.070303
2.577500,0.065473
2.578000,0.056456
2.578500,0.042931
2.579000,0.029084
2.579500,0.017169
2.580000,0.006542
2.580500,0.004932
2.581000,0.018457
2.581500,0.034880
2.582000,0.044219
2.582500,0.050982
2.583000,0.057100
2.583500,0.061286
2.584000,0.065795
2.584500,0.063541
2.585000,0.063863
2.585500,0.061608
2.586000,0.059354
2.586500,0.049694
2.587000,0.032626
2.587500,0.023288
2.588000,0.011051
2.588500,0.003644
2.589000,0.015559
2.589500,0.031982
2.590000,0.045829
2.590500,0.055168
2.591000,0.059676
2.591500,0.066117
2.592000,0.070303
2.592500,0.073845
2.593000,0.071913
2.593500,0.067727
2.594000,0.065151
2.594500,0.058710
2.595000,0.047439
2.595500,0.033592
2.596000,0.021033
2.596500,0.010729
2.597000,0.001068
2.597500,0.010085
2.598000,0.022644
2.598500,0.040033
2.599000,0.050338
2.599500,0.060642
2.600000,0.063219
2.600500,0.061930
2.601000,0.064507
2.601500,0.065795
2.602000,0.062252
2.602500,0.060964
2.603000,0.053880
2.603500,0.039711
2.604000,0.024254
2.604500,0.010407
2.605000,0.000424
2.605500,0.010407
2.606000,0.022000
2.606500,0.035525
2.607000,0.048405
2.607500,0.057744
2.608000,0.064829
2.608500,0.068693
2.609000,0.074489
2.609500,0.079642
2.610000,0.077710
2.610500,0.076099
2.611000,0.069659
2.611500,0.057744
2.612000,0.044219
2.612500,0.032626
2.613000,0.016847
2.613500,0.003000
2.614000,0.011373
2.614500,0.025220
2.615000,0.037779
2.615500,0.050982
2.616000,0.056778
2.616500,0.061608
2.617000,0.061930
2.617500,0.068049
2.618000,0.068049
2.618500,0.067083
2.619000,0.061930
2.619500,0.058066
2.620000,0.043897
2.620500,0.030694
2.621000,0.015881
2.621500,0.008153
2.622000,0.004610
2.622500,0.016847
2.623000,0.033270
2.623500,0.048405
2.624000,0.059354
2.624500,0.065473
2.625000,0.067405
2.625500,0.067083
2.626000,0.070947
2.626500,0.074167
2.627000,0.073201
2.627500,0.066439
2.628000,0.055490
2.628500,0.044863
2.629000,0.034236
2.629500,0.022644
2.630000,0.008475
2.630500,0.003966
2.631000,0.018135
2.631500,0.034558
2.632000,0.047761
2.632500,0.056456
2.633000,0.061286
2.633500,0.066117
2.634000,0.070947
2.634500,0.076099
2.635000,0.075133
2.635500,0.070303
2.636000,0.062574
2.636500,0.050338
2.637000,0.042931
2.637500,0.025864
2.638000,0.010085
2.638500,0.005254
2.639000,0.014915
2.639500,0.029728
2.640000,0.041965
2.640500,0.050016
2.641000,0.054524
2.641500,0.060642
2.642000,0.068693
2.642500,0.070625
2.643000,0.076099
2.643500,0.076099
2.644000,0.069015
2.644500,0.060642
2.645000,0.046151
2.645500,0.032304
2.646000,0.018779
2.646500,0.003644
2.647000,0.009763
2.647500,0.022322
2.648000,0.037135
2.648500,0.045829
2.649000,0.057744
2.649500,0.064829
2.650000,0.069337
2.650500,0.072235
2.651000,0.076421
2.651500,0.075455
2.652000,0.073845
2.652500,0.070303
2.653000,0.063219
2.653500,0.050016
2.654000,0.036491
2.654500,0.023288
2.655000,0.012661
2.655500,0.003000
2.656000,0.014915
2.656500,0.027796
2.657000,0.041321
2.657500,0.047761
2.658000,0.052914
2.658500,0.060642
2.659000,0.066117
2.659500,0.069015
2.660000,0.063863
2.660500,0.060964
2.661000,0.052592
2.661500,0.042931
2.662000,0.032626
2.662500,0.021678
2.663000,0.009763
2.663500,-0.000864
2.664000,0.015237
2.664500,0.028762
2.665000,0.043575
2.665500,0.054846
2.666000,0.060320
2.666500,0.065795
2.667000,0.068049
2.667500,0.074489
2.668000,0.075777
2.668500,0.075777
2.669000,0.068049
2.669500,0.057744
2.670000,0.044541
2.670500,0.030694
2.671000,0.021033
2.671500,0.011051
2.672000,0.004932
2.672500,0.017491
2.673000,0.034236
2.673500,0.046473
2.674000,0.056456
2.674500,0.062574
2.675000,0.068371
2.675500,0.073201
2.676000,0.074811
2.676500,0.075455
2.677000,0.070625
2.677500,0.065151
2.678000,0.056778
2.678500,0.044541
2.679000,0.031338
2.679500,0.018779
2.680000,0.009441
2.680500,-0.000542
2.681000,0.012661
2.681500,0.031016
2.682000,0.043897
2.682500,0.053880
2.683000,0.062252
2.683500,0.067083
2.684000,0.067083
2.684500,0.067405
2.685000,0.067727
2.685500,0.063863
2.686000,0.058066
2.686500,0.048083
2.687000,0.037779
2.687500,0.025220
2.688000,0.016203
2.688500,0.008475
2.689000,0.002678
2.689500,0.013949
2.690000,0.031660
2.690500,0.045185
2.691000,0.050660
2.691500,0.058388
2.692000,0.060642
2.692500,0.069337
2.693000,0.073845
2.693500,0.075777
2.694000,0.071269
2.694500,0.065151
2.695000,0.055812
2.695500,0.040677
2.696000,0.031016
2.696500,0.022966
2.697000,0.001390
2.697500,0.023610
2.698000,0.043575
2.698500,0.052270
2.699000,0.056456
2.699500,0.063863
2.700000,0.067727
2.700500,0.070625
2.701000,0.072235
2.701500,0.069659
2.702000,0.067727
2.702500,0.062897
2.703000,0.052270
2.703500,0.038101
2.704000,0.021033
2.704500,0.008153
2.705000,0.002678
2.705500,0.010729
2.706000,0.022000
2.706500,0.040355
2.707000,0.050660
2.707500,0.058710
2.708000,0.062574
2.708500,0.064507
2.709000,0.066117
2.709500,0.068693
2.710000,0.066117
2.710500,0.060642
2.711000,0.052270
2.711500,0.042931
2.712000,0.031338
2.712500,0.014593
2.713000,0.003000
2.713500,0.007509
2.714000,0.020067
2.714500,0.031338
2.715000,0.045507
2.715500,0.054202
2.716000,0.062252
2.716500,0.071591
2.717000,0.075455
2.717500,0.079642
2.718000,0.077710
2.718500,0.073201
2.719000,0.066117
2.719500,0.061286
2.720000,0.050338
2.720500,0.038101
2.721000,0.025542
2.721500,0.012661
2.722000,0.003000
2.722500,0.012017
2.723000,0.027796
2.723500,0.041965
2.724000,0.054846
2.724500,0.060964
2.725000,0.061930
2.725500,0.063219
2.726000,0.065795
2.726500,0.064507
2.727000,0.061930
2.727500,0.057422
2.728000,0.049694
2.728500,0.036813
2.729000,0.022322
2.729500,0.011051
2.730000,0.000746
2.730500,0.011373
2.731000,0.023610
2.731500,0.041643
2.732000,0.050660
2.732500,0.058710
2.733000,0.063863
2.733500,0.070625
2.734000,0.074811
2.734500,0.078998
2.735000,0.081574
2.735500,0.078676
2.736000,0.075133
2.736500,0.065473
2.737000,0.052914
2.737500,0.039389
2.738000,0.027474
2.738500,0.014271
2.739000,0.002678
2.739500,0.009441
2.740000,0.023288
2.740500,0.034236
2.741000,0.039389
2.741500,0.044219
2.742000,0.047117
2.742500,0.049050
2.743000,0.054524
2.743500,0.054524
2.744000,0.054202
2.744500,0.045185
2.745000,0.036169
2.745500,0.023932
2.746000,0.017813
2.746500,0.007831
2.747000,0.005576
2.747500,0.023610
2.748000,0.047117
2.748500,0.068693
2.749000,0.085116
2.749500,0.094455
2.750000,0.105404
2.750500,0.109268
2.751000,0.116352
2.751500,0.120217
2.752000,0.118929
2.752500,0.113132
2.753000,0.107014
2.753500,0.093167
2.754000,0.078998
2.754500,0.065151
2.755000,0.053880
2.755500,0.038101
2.756000,0.021356
2.756500,0.000102
2.757000,0.016525
2.757500,0.025542
2.758000,0.027474
2.758500,0.031660
2.759000,0.036491
2.759500,0.045185
2.760000,0.045829
2.760500,0.043575
2.761000,0.040355
2.761500,0.032948
2.762000,0.022000
2.762500,0.008153
2.763000,0.004932
2.763500,0.012339
2.764000,0.020389
2.764500,0.030372
2.765000,0.044219
2.765500,0.056134
2.766000,0.061608
2.766500,0.067083
2.767000,0.068693
2.767500,0.069337
2.768000,0.069659
2.768500,0.065473
2.769000,0.058710
2.769500,0.049050
2.770000,0.040033
2.770500,0.025542
2.771000,0.013305
2.771500,0.001712
2.772000,0.010729
2.772500,0.022644
2.773000,0.039389
2.773500,0.054524
2.774000,0.065151
2.774500,0.073845
2.775000,0.075455
2.775500,0.076743
2.776000,0.080930
2.776500,0.076421
2.777000,0.071913
2.777500,0.066439
2.778000,0.059354
2.778500,0.050016
2.779000,0.038423
2.779500,0.026508
2.780000,0.014593
2.780500,0.003322
2.781000,0.005898
2.781500,0.025220
2.782000,0.036491
2.782500,0.042609
2.783000,0.050338
2.783500,0.054202
2.784000,0.056778
2.784500,0.059998
2.785000,0.061930
2.785500,0.058066
2.786000,0.051626
2.786500,0.043897
2.787000,0.029406
2.787500,0.011695
2.788000,0.006542
2.788500,0.016203
2.789000,0.030050
2.789500,0.044541
2.790000,0.059998
2.790500,0.066761
2.791000,0.071913
2.791500,0.076099
2.792000,0.079964
2.792500,0.080930
2.793000,0.083184
2.793500,0.078676
2.794000,0.071591
2.794500,0.061286
2.795000,0.050338
2.795500,0.039711
2.796000,0.025220
2.796500,0.016847
2.797000,0.003966
2.797500,0.010729
2.798000,0.025864
2.798500,0.040355
2.799000,0.049050
2.799500,0.052270
2.800000,0.052914
2.800500,0.055168
2.801000,0.059676
2.801500,0.063219
2.802000,0.060642
2.802500,0.053880
2.803000,0.046151
2.803500,0.034880
2.804000,0.020389
2.804500,0.008475
2.805000,0.002678
2.805500,0.008153
2.806000,0.021356
2.806500,0.037779
2.807000,0.050338
2.807500,0.062252
2.808000,0.070303
2.808500,0.074167
2.809000,0.073845
2.809500,0.076743
2.810000,0.078354
2.810500,0.072235
2.811000,0.066117
2.811500,0.056778
2.812000,0.043897
2.812500,0.029406
2.813000,0.015881
2.813500,0.001712
2.814000,0.009119
2.814500,0.024898
2.815000,0.038101
2.815500,0.049050
2.816000,0.054202
2.816500,0.057422
2.817000,0.055812
2.817500,0.057744
2.818000,0.060642
2.818500,0.060320
2.819000,0.059676
2.819500,0.055168
2.820000,0.042931
2.820500,0.030694
2.821000,0.016847
2.821500,0.007509
2.822000,0.005898
2.822500,0.016203
2.823000,0.031338
2.823500,0.046795
2.824000,0.057100
2.824500,0.062574
2.825000,0.064185
2.825500,0.068049
2.826000,0.073845
2.826500,0.075133
2.827000,0.072235
2.827500,0.066761
2.828000,0.059354
2.828500,0.049372
2.829000,0.037135
2.829500,0.028440
2.830000,0.012661
2.830500,0.000424
2.831000,0.011051
2.831500,0.031016
2.832000,0.045829
2.832500,0.054846
2.833000,0.063863
2.833500,0.068693
2.834000,0.070303
2.834500,0.072235
2.835000,0.075455
2.835500,0.066761
2.836000,0.057422
2.836500,0.041321
2.837000,0.028762
2.837500,0.012339
2.838000,0.003322
2.838500,0.012983
2.839000,0.021356
2.839500,0.034236
2.840000,0.050660
2.840500,0.058388
2.841000,0.064185
2.841500,0.072557
2.842000,0.073845
2.842500,0.077710
2.843000,0.075133
2.843500,0.065151
2.844000,0.054846
2.844500,0.045185
2.845000,0.031982
2.845500,0.022000
2.846000,0.012017
2.846500,0.002356
2.847000,0.009763
2.847500,0.016525
2.848000,0.028762
2.848500,0.041321
2.849000,0.051626
2.849500,0.059354
2.850000,0.066117
2.850500,0.064185
2.851000,0.067405
2.851500,0.066439
2.852000,0.065795
2.852500,0.062574
2.853000,0.055812
2.853500,0.041643
2.854000,0.025542
2.854500,0.013949
2.855000,0.003644
2.855500,0.005898
2.856000,0.014593
2.856500,0.033914
2.857000,0.046473
2.857500,0.055812
2.858000,0.064507
2.858500,0.073845
2.859000,0.075133
2.859500,0.076743
2.860000,0.078032
2.860500,0.069015
2.861000,0.064507
2.861500,0.053880
2.862000,0.040999
2.862500,0.031016
2.863000,0.020389
2.863500,0.006864
2.864000,0.003322
2.864500,0.018457
2.865000,0.035525
2.865500,0.044863
2.866000,0.050338
2.866500,0.055168
2.867000,0.055168
2.867500,0.058710
2.868000,0.059676
2.868500,0.058710
2.869000,0.055812
2.869500,0.053558
2.870000,0.044219
2.870500,0.031016
2.871000,0.017813
2.871500,0.004932
2.872000,0.008475
2.872500,0.023610
2.873000,0.041321
2.873500,0.058710
2.874000,0.063541
2.874500,0.067727
2.875000,0.069981
2.875500,0.072235
2.876000,0.078998
2.876500,0.078676
2.877000,0.077388
2.877500,0.071591
2.878000,0.063541
2.878500,0.053880
2.879000,0.038745
2.879500,0.027152
2.880000,0.017813
2.880500,0.007187
2.881000,0.007187
2.881500,0.022000
2.882000,0.040033
2.882500,0.050660
2.883000,0.058710
2.883500,0.058388
2.884000,0.057422
2.884500,0.061608
2.885000,0.062252
2.885500,0.056778
2.886000,0.051948
2.886500,0.048405
2.887000,0.034236
2.887500,0.023610
2.888000,0.010085
2.888500,0.007187
2.889000,0.014593
2.889500,0.027474
2.890000,0.041643
2.890500,0.056778
2.891000,0.066439
2.891500,0.071269
2.892000,0.072557
2.892500,0.075777
2.893000,0.077710
2.893500,0.076099
2.894000,0.069981
2.894500,0.064829
2.895000,0.059354
2.895500,0.043575
2.896000,0.030372
2.896500,0.016525
2.897000,0.004610
2.897500,0.007509
2.898000,0.022322
2.898500,0.037779
2.899000,0.047439
2.899500,0.054524
2.900000,0.058388
2.900500,0.062252
2.901000,0.064829
2.901500,0.066761
2.902000,0.065151
2.902500,0.060642
2.903000,0.057744
2.903500,0.048405
2.904000,0.031660
2.904500,0.017491
2.905000,0.006542
2.905500,0.006542
2.906000,0.021356
2.906500,0.035525
2.907000,0.050660
2.907500,0.061930
2.908000,0.065151
2.908500,0.070625
2.909000,0.069659
2.909500,0.071269
2.910000,0.067405
2.910500,0.064829
2.911000,0.057744
2.911500,0.051304
2.912000,0.040355
2.912500,0.028118
2.913000,0.017169
2.913500,0.001390
2.914000,0.013949
2.914500,0.029406
2.915000,0.045829
2.915500,0.056778
2.916000,0.064507
2.916500,0.067405
2.917000,0.066761
2.917500,0.067727
2.918000,0.066117
2.918500,0.066117
2.919000,0.058710
2.919500,0.053880
2.920000,0.044219
2.920500,0.031338
2.921000,0.016847
2.921500,0.006220
2.922000,0.003966
2.922500,0.015559
2.923000,0.031016
2.923500,0.045507
2.924000,0.053236
2.924500,0.060320
2.925000,0.064185
2.925500,0.068371
2.926000,0.069981
2.926500,0.066761
2.927000,0.061930
2.927500,0.053236
2.928000,0.044219
2.928500,0.029084
2.929000,0.015559
2.929500,0.007187
2.930000,0.003000
2.930500,-0.000864
2.931000,0.008797
2.931500,0.022000
2.932000,0.033270
2.932500,0.049694
2.933000,0.059354
2.933500,0.064185
2.934000,0.067727
2.934500,0.074167
2.935000,0.073201
2.935500,0.068371
2.936000,0.063219
2.936500,0.052592
2.937000,0.036491
2.937500,0.022000
2.938000,0.009763
2.938500,0.002034
2.939000,0.011051
2.939500,0.019423
2.940000,0.031982
2.940500,0.042931
2.941000,0.054846
2.941500,0.061930
2.942000,0.069015
2.942500,0.074167
2.943000,0.074811
2.943500,0.071913
2.944000,0.067405
2.944500,0.060320
2.945000,0.050660
2.945500,0.038423
2.946000,0.026830
2.946500,0.017169
2.947000,0.003966
2.947500,0.009763
2.948000,0.026186
2.948500,0.039711
2.949000,0.048083
2.949500,0.056778
2.950000,0.065151
2.950500,0.069337
2.951000,0.072879
2.951500,0.071913
2.952000,0.067727
2.952500,0.062574
2.953000,0.054846
2.953500,0.043575
2.954000,0.029728
2.954500,0.019101
2.955000,0.003966
2.955500,0.013305
2.956000,0.025864
2.956500,0.041321
2.957000,0.053558
2.957500,0.063863
2.958000,0.066761
2.958500,0.071269
2.959000,0.073201
2.959500,0.069981
2.960000,0.070625
2.960500,0.068693
2.961000,0.065151
2.961500,0.056134
2.962000,0.045185
2.962500,0.031016
2.963000,0.019423
2.963500,0.009763
2.964000,-0.002796
2.964500,0.018457
2.965000,0.034880
2.965500,0.045185
2.966000,0.052270
2.966500,0.058710
2.967000,0.062897
2.967500,0.064829
2.968000,0.068371
2.968500,0.063863
2.969000,0.059032
2.969500,0.053236
2.970000,0.044863
2.970500,0.036169
2.971000,0.022322
2.971500,0.007509
2.972000,0.005576
2.972500,0.019101
2.973000,0.030372
2.973500,0.044219
2.974000,0.054846
2.974500,0.062252
2.975000,0.067083
2.975500,0.071591
2.976000,0.076743
2.976500,0.076743
2.977000,0.070303
2.977500,0.062897
2.978000,0.055812
2.978500,0.045829
2.979000,0.030694
2.979500,0.022644
2.980000,0.014915
2.980500,0.003644
2.981000,0.006864
2.981500,0.024898
2.982000,0.038423
2.982500,0.049050
2.983000,0.056456
2.983500,0.062574
2.984000,0.065795
2.984500,0.068049
2.985000,0.067083
2.985500,0.062897
2.986000,0.059998
2.986500,0.053236
2.987000,0.042287
2.987500,0.029084
2.988000,0.017813
2.988500,0.007187
2.989000,0.008475
2.989500,0.023610
2.990000,0.040355
2.990500,0.048727
2.991000,0.060320
2.991500,0.066761
2.992000,0.068049
2.992500,0.069981
2.993000,0.070303
2.993500,0.070947
2.994000,0.067405
2.994500,0.061286
2.995000,0.048727
2.995500,0.030694
2.996000,0.012661
2.996500,0.002678
2.997000,0.005254
2.997500,0.012983
2.998000,0.027152
2.998500,0.040355
2.999000,0.052592
2.999500,0.063863
3.000000,0.070947
3.000500,0.070625
3.001000,0.070303
3.001500,0.061608
3.002000,0.055490
3.002500,0.049372
3.003000,0.044863
3.003500,0.036813
3.004000,0.022322
3.004500,0.008475
3.005000,0.007831
3.005500,0.016525
3.006000,0.024254
3.006500,0.039389
3.007000,0.053236
3.007500,0.059032
3.008000,0.063863
3.008500,0.065473
3.009000,0.069659
3.009500,0.076421
3.010000,0.079320
3.010500,0.078032
3.011000,0.069981
3.011500,0.059354
3.012000,0.046795
3.012500,0.030372
3.013000,0.010729
3.013500,0.000424
3.014000,0.013627
3.014500,0.020711
3.015000,0.029728
3.015500,0.038101
3.016000,0.042609
3.016500,0.049050
3.017000,0.051304
3.017500,0.054846
3.018000,0.061608
3.018500,0.064829
3.019000,0.065795
3.019500,0.060642
3.020000,0.050338
3.020500,0.032626
3.021000,0.015881
3.021500,0.002034
3.022000,0.008153
3.022500,0.021356
3.023000,0.033914
3.023500,0.046473
3.024000,0.054846
3.024500,0.062897
3.025000,0.070947
3.025500,0.073523
3.026000,0.078032
3.026500,0.077710
3.027000,0.073523
3.027500,0.068371
3.028000,0.059032
3.028500,0.045185
3.029000,0.033914
3.029500,0.023610
3.030000,0.012983
3.030500,0.003000
3.031000,0.007187
3.031500,0.019101
3.032000,0.032948
3.032500,0.041965
3.033000,0.048083
3.033500,0.055490
3.034000,0.058066
3.034500,0.060642
3.035000,0.060320
3.035500,0.061930
3.036000,0.056134
3.036500,0.049050
3.037000,0.039067
3.037500,0.025220
3.038000,0.007509
3.038500,0.005576
3.039000,0.017813
3.039500,0.030050
3.040000,0.042287
3.040500,0.048727
3.041000,0.054202
3.041500,0.060320
3.042000,0.064507
3.042500,0.068693
3.043000,0.068371
3.043500,0.066761
3.044000,0.060642
3.044500,0.055490
3.045000,0.051304
3.045500,0.038423
3.046000,0.025542
3.046500,0.013305
3.047000,0.000746
3.047500,0.010085
3.048000,0.021356
3.048500,0.038745
3.049000,0.052914
3.049500,0.057744
3.050000,0.064507
3.050500,0.069337
3.051000,0.071913
3.051500,0.071269
3.052000,0.067727
3.052500,0.063541
3.053000,0.059032
3.053500,0.049372
3.054000,0.034880
3.054500,0.019101
3.055000,0.009763
3.055500,0.003966
3.056000,0.017491
3.056500,0.026508
3.057000,0.040999
3.057500,0.049050
3.058000,0.055168
3.058500,0.058710
3.059000,0.062574
3.059500,0.064829
3.060000,0.062574
3.060500,0.054524
3.061000,0.050982
3.061500,0.047117
3.062000,0.036169
3.062500,0.024576
3.063000,0.014593
3.063500,0.002356
3.064000,0.014593
3.064500,0.030050
3.065000,0.050016
3.065500,0.058388
3.066000,0.062252
3.066500,0.067405
3.067000,0.065151
3.067500,0.069015
3.068000,0.070303
3.068500,0.070625
3.069000,0.066117
3.069500,0.057744
3.070000,0.047761
3.070500,0.036491
3.071000,0.021678
3.071500,0.013627
3.072000,0.006220
3.072500,0.004610
3.073000,0.015881
3.073500,0.032948
3.074000,0.048405
3.074500,0.056456
3.075000,0.059032
3.075500,0.059354
3.076000,0.063219
3.076500,0.062252
3.077000,0.059032
3.077500,0.056778
3.078000,0.051948
3.078500,0.046151
3.079000,0.035847
3.079500,0.025542
3.080000,0.016203
3.080500,0.005898
3.081000,0.009119
3.081500,0.031660
3.082000,0.046795
3.082500,0.056134
3.083000,0.059998
3.083500,0.063541
3.084000,0.062574
3.084500,0.064185
3.085000,0.064185
3.085500,0.060964
3.086000,0.060642
3.086500,0.061286
3.087000,0.042609
3.087500,0.020711
3.088000,0.003322
3.088500,0.012661
3.089000,0.021033
3.089500,0.032304
3.090000,0.045507
3.090500,0.058066
3.091000,0.060642
3.091500,0.055168
3.092000,0.048727
3.092500,0.050016
3.093000,0.052270
3.093500,0.057422
3.094000,0.059998
3.094500,0.059032
3.095000,0.054846
3.095500,0.047117
3.096000,0.037779
3.096500,0.026186
3.097000,0.009441
3.097500,0.008153
3.098000,0.023610
3.098500,0.037135
3.099000,0.046473
3.099500,0.049372
3.100000,0.059354
3.100500,0.063219
3.101000,0.070303
3.101500,0.071269
3.102000,0.069659
3.102500,0.068049
3.103000,0.061286
3.103500,0.048083
3.104000,0.033270
3.104500,0.022644
3.105000,0.011373
3.105500,0.003000
3.106000,0.011373
3.106500,0.029084
3.107000,0.046151
3.107500,0.052270
3.108000,0.056456
3.108500,0.058388
3.109000,0.063219
3.109500,0.069981
3.110000,0.074489
3.110500,0.076099
3.111000,0.073523
3.111500,0.065795
3.112000,0.052592
3.112500,0.038423
3.113000,0.026508
3.113500,0.011051
3.114000,0.004932
3.114500,0.006864
3.115000,0.021356
3.115500,0.033592
3.116000,0.042609
3.116500,0.046151
3.117000,0.049372
3.117500,0.053880
3.118000,0.059676
3.118500,0.060320
3.119000,0.061930
3.119500,0.055168
3.120000,0.042931
3.120500,0.028440
3.121000,0.010729
3.121500,0.001068
3.122000,0.009119
3.122500,0.018457
3.123000,0.032304
3.123500,0.045829
3.124000,0.056778
3.124500,0.060320
3.125000,0.066439
3.125500,0.067405
3.126000,0.069659
3.126500,0.072557
3.127000,0.070625
3.127500,0.065795
3.128000,0.059354
3.128500,0.051304
3.129000,0.039067
3.129500,0.026508
3.130000,0.017169
3.130500,0.006864
3.131000,0.005254
3.131500,0.023932
3.132000,0.040677
3.132500,0.048405
3.133000,0.054524
3.133500,0.059354
3.134000,0.061608
3.134500,0.063541
3.135000,0.062574
3.135500,0.059676
3.136000,0.055812
3.136500,0.050660
3.137000,0.039389
3.137500,0.027152
3.138000,0.014593
3.138500,0.002356
3.139000,0.012983
3.139500,0.025864
3.140000,0.043253
3.140500,0.057422
3.141000,0.061286
3.141500,0.061930
3.142000,0.061608
3.142500,0.064507
3.143000,0.066117
3.143500,0.067727
3.144000,0.063541
